,UKF248,UKF269,UKF334,ZH1007inf,ZH1007nec,ZH916T1,ZH916bulk
IGFL3,,0.002635558065364946,,,,-0.01732583647889869,
BMP1,0.04684734142370123,0.028252847678667068,-0.03592432216235013,0.015409694609162757,-0.023681732887928415,0.00030508608702566574,0.019282600884695824
NDP,0.03046468696443472,0.053997116391899525,0.06616160999564563,0.13621682662665432,-0.022932329078226826,0.021717894082575212,0.014953756595625946
TNFSF18,-0.010254032141756618,0.07235799619982644,,-0.027738324989340445,,0.06149344512097014,0.11665880272341378
IL36G,,,0.08139500355762289,,,,
RTN4,-0.01700021835623321,-0.008677743437389125,0.03864835471577625,0.05768593507612507,-0.039667578686449836,-0.020071059134958342,-0.03347704587177513
HEBP1,0.00031254454950006724,-0.015429893356242593,-0.012639541231075217,0.0425799444138337,-0.10500666538280416,-0.029088505305591397,-0.004160160007811136
WNT7B,-0.03674642317934705,0.0650865835506296,-0.018834696356993284,0.01965020193103742,0.09807111444885852,-0.01187268916437257,-0.036653785709032334
PTMA,0.06764933924625484,-0.024076328472371712,-0.006826482262323128,-0.03626539770157008,-0.13117945056552147,0.04981055687602725,0.026238425450804015
FASLG,,,,,,-0.015026692067354304,
CEACAM1,0.06917736578280471,0.02013410133344028,,,0.04410054654373708,-0.00036863533822073676,
PDAP1,0.046218189064266745,0.01989013349093296,-0.029361652980048024,0.0032696947818551345,-0.03838351333028792,0.0550091673195381,-0.01956453511062096
QDPR,-0.017028304607719025,-0.008880634193330034,0.03748877877736829,0.09031610045934468,-0.0038245398876478017,0.01868878992043217,-0.08639332606183261
POMC,0.02203530728237285,0.030911340463566236,0.020161129385808912,0.05241759946726814,-0.03469124767870872,0.04892269905036017,0.10903002146252377
CCL18,-0.019721818518551773,,,,0.06357222242487164,,
CCL17,,,-0.01565443657850972,,,-0.013620008566730015,
VEGFD,-0.019721824781152864,0.008579239573211066,-0.01677734455132481,,-0.03830051439057649,,
TNFSF13,-0.01488272184950288,,,,,-0.022192667143562637,-0.028304844292197345
WNT5A,-0.026514616091081245,0.027867341301952293,0.03865564592951513,-0.00028745022707410623,0.09666057383237979,0.042861771573494314,0.029537734657157238
CXCL8,-0.06665956381103452,0.006308142460338834,-0.021384499938329537,,-0.02029767463953962,0.021363575078261626,0.009253943624702655
GRN,0.05998045986926672,-0.0012927431525885376,0.009605317886388581,0.07094212707704141,0.04521994248291423,0.008238154516345717,0.003270556920405029
MIA,-0.039292679281232826,-0.029297808291007428,-0.02297734222780761,-0.003483662259377316,0.06271958192459678,0.025856989496707262,-0.030699087252291948
COL4A4,-0.023685743805620017,-0.018009745834616186,0.05324245572466235,,,0.042787396903652436,0.048217200819868036
TAC1,-0.03178074234095488,0.01609013158578066,0.03557520978730994,,,-0.017904886201729947,-0.017470840648151194
RARRES2,-0.021459973850573896,-0.022619925212831887,-0.013498972486247358,0.04786948820457228,-0.059430102884122114,0.03747728843275287,0.0688532432437102
FGF7,,0.03943863626613129,0.02285211049044773,0.09236244144170848,0.0533592808252214,0.013857099914480524,0.021633778467386185
HBEGF,0.02059654829967054,0.038217441105653165,-0.027326765971120652,0.04603372274865035,-0.02993322242653577,0.007833125916158498,0.046579356452705445
CSF3,,-0.019053964448461958,,,,0.09954927177915297,0.026541507160300216
PI3,-0.020748184587981264,-0.021455015454077995,,,-0.03440311769964608,-0.031155551696404608,-0.00046077675937523515
PCSK1N,-0.004223246633740034,0.020028208327574064,0.03444622605470692,0.010615443625712258,-0.052453603040751966,0.038579789106395666,-0.000326851790122719
NTS,,-0.0070147484295669,,,,-0.021235240851626383,
SFRP1,0.021243805974686492,-0.005258935888349369,-0.02157764243587596,0.04376930178997153,-0.015319671216697698,-0.020741787652483048,-0.003688506776117392
CXCL13,,,,,,,0.06790187973561661
MICA,-0.0019792237434445147,0.010960275931205507,0.015283262228114118,-0.02934687150020032,0.056922384221728566,0.047627087607248646,-0.03534353928794436
TG,0.06085664842691139,0.010065365768545645,-0.02351517262792794,0.08888141629208554,-0.05371687866648815,0.035714817357907026,-0.029744924521149362
ADA,0.038703920844035414,-0.006605861314362695,-0.012927908853356058,-0.0199106776109391,-0.025383500792872604,0.09157376786672203,0.043441464997719184
LAMC3,0.05752203071074699,0.036149260402766586,-0.02545818667944459,-0.039019557126854905,-0.0014156325222273048,0.02432593803412306,0.011659632049709349
CCL7,-0.012544742632953531,,,,,-0.01502668672404197,0.044890091865116125
NGF,-0.021538700140325016,,,,,-0.035269592057777584,0.015609690646652808
TNFSF15,,,,0.08513938545192408,,-0.01780013737471354,-0.009425132265249186
HMGB1,0.08281336665345046,0.03167731886875984,-0.018589428998214523,-0.04302804871041514,-0.04110334926981725,0.044588244044069594,-0.006410805546114263
ITGB3BP,-0.03946193840350448,0.06803187783225673,0.00018780852710969595,0.039705829145497536,-0.060282835596798236,0.01625265925223248,0.004725796443009321
AANAT,0.07720860471899857,0.028494989970716127,-0.02099892930703867,,-0.022384792594440196,-0.01589886119960387,-0.0203184966038537
RELN,0.0646474674998327,0.060404648977311966,-0.023247627234815826,,,,-0.061451112781471966
IL15,0.09581338505915729,-0.02810210300996543,0.04936209973876571,0.04402332972561321,-0.0095614824051061,0.03941808184996554,0.007845354396079939
UTS2,,0.005306944307143365,,-0.06055629649268001,-0.044437695593435175,,
BSG,0.05395619922778732,0.023577287831074826,-0.033938406564456555,0.1199597025333585,0.09563328829672972,0.05660012799496844,-0.012099297117409171
ADAMTS3,-0.033357239156146225,0.03660871271434036,0.1124313710234121,0.07381129223464951,0.045810686411824474,0.03919882531329002,-0.005464547541062711
CD34,0.048074726678674906,-0.015694951768506646,0.04171897039765089,-0.07666960081003962,0.00526989829039115,0.011635350197288013,0.005851465425011196
CCL23,,0.01905695675364181,,-0.03091851617614711,,,
PLAT,0.08039915066393911,0.0046263688546284,0.016564083640728835,-0.023303070666649894,0.0024636329879039747,0.01414399789333515,0.02762102081269353
LTA,,,-0.01947553878162322,,,0.01861676501003231,
CKLF,-0.01564784815195645,0.01642687468599897,-0.01936868200531033,0.04097408710665735,-0.060847624213120996,-0.013807759615954582,-0.0024626524612067296
CD24,-0.014888141758138147,0.07745002137903678,0.01522632297539973,0.0547538859789734,-0.08393408531205974,0.02942653649711934,0.0007625810570397337
HSP90AA1,-0.030238632524804358,0.00933055877969207,0.031540797986575976,-0.012852300051481627,0.012938543230544233,-0.0035556082639266297,-0.03111101682794072
BMP4,-0.010843816881545306,-0.0076041081547609645,-0.016595170561776767,-0.010268512810311218,-0.03499121272487085,0.03800996071647663,0.05065887246655379
SCGB3A1,-0.012544741378496026,,0.011503920888117143,3.0282486379249595e-05,0.023812662293475235,-0.017269487428621628,0.0890528990362332
IGFBP4,0.08852963526712435,0.07081502070107411,-0.039403839521419584,-0.07716940457641877,-0.0034495831193693677,0.026074721221562694,0.023437382132138567
RSPO4,,,-0.027015638359802786,,,-0.028221024636630967,-0.006111385384244553
LEFTY2,0.05267102957381164,0.041284417475163045,0.03215988394946136,-0.06403887074982247,-0.027081053327430084,-0.015340022067536683,0.038024182214856976
PF4,-0.013013155454645703,,,,,-0.02139746620724591,0.0051274511858501876
ANGPTL2,0.011280589673864624,0.0028750072429418005,-0.07199639576992889,0.05787226908979533,0.005669287431196328,0.020635034713652262,0.02723775480640869
LRIG2,0.019482309331295387,0.010200233696448745,-0.018992468640279665,-0.019542277993722507,-0.0028785241216922053,0.0035927372931098683,-0.034048504366600826
ICOSLG,-0.03531024558214797,-0.01466448478819191,0.02516027529951891,0.06308496961200438,0.1590363845209772,0.02566114447663377,0.06167603636752037
WIF1,-0.02341506103228574,0.06709758183264394,-0.022890627518087386,,,,0.06245462356454027
NPPC,0.04083690446928484,0.07341031518971444,0.004446251908185375,-0.02731757018125876,0.09998145764284028,,0.038978496467965536
LYZ,0.016758875040074134,0.04824613251590029,0.01704731869895436,-0.0014826970564145179,-0.019349135468210356,0.06451973906608018,0.020448126534856836
EREG,,,,,,0.02295527104217606,-0.02310678890457799
SPTAN1,0.04685843560496932,0.05642689957001117,0.029324234273936798,0.043943880610586045,0.0034876283427516135,0.024477325130412182,-0.07666269863162156
LIPC,-0.01593152271662311,0.0407199100543112,0.04873316000146959,0.07369373389061534,-0.03449675659355211,-0.027054496178199,-0.031298334105448626
COL8A1,-0.016634576066237975,0.01669414619421589,-0.015305519472202924,0.05993909343384962,-0.09445545161276468,0.007656103007555669,0.01927529480164004
GSTM2,-0.009127918579616345,-0.035406789412181894,0.01824010079828646,0.02134797000429802,-0.0913771604614709,-0.03667908878861468,-0.0038368191482871057
IL4,,,,,-0.03297560699840844,,
SPX,-0.011676904818100034,0.02056919818593896,0.061001726221847026,-0.036214679531940824,,-0.00566297884726868,-0.022635322236655646
MFGE8,0.03603480475653484,-0.03678205797759994,-0.024082779141476482,-0.0028509534017277446,0.021791297957249947,0.023291444019990948,0.04665985236754361
TGFA,-0.06562712640257806,-0.032460635413276574,-0.007731584947706247,-0.04928011615329507,-0.0478510862031371,0.004193138856781748,0.034435550772456344
SLIT2,-0.01793517273596598,0.05762187685046106,-0.04380797109672249,-0.0050484239387733635,-0.003837084820092961,0.013913070000266623,0.0032404232942634687
PLTP,0.05460224354360526,-0.036272821792250526,-0.057838347873259886,0.1204468520528949,0.003408485008491596,0.059909896181015734,0.06234398393062624
APOD,-0.0101608685795752,0.00926661510893751,0.001780003530681455,-0.035140758388255824,0.03794802755746273,0.027297056079287497,0.022640613513626246
B2M,0.04166828406343828,-0.010486973401796823,0.008012526109343361,0.13145531012166006,-0.01063685299087231,0.025987839953779786,0.04593538550654393
OMG,0.03296952683658958,-0.00513384065176241,0.04202823930686983,0.05847084452122461,-0.03523510738575301,0.04541310416395146,-0.061436606576535324
CXCL3,-0.03213559561157606,0.04385581652588007,-0.014025914677765367,-0.0022723892837493375,-0.06683075897010468,0.033782572147002005,0.010068894566387593
CXCL10,-0.010324398003421421,0.01076432932680667,-0.007303661076902613,0.009124797718420195,-0.07107554125262273,-0.03920857188384969,-0.02314759397289407
RSPO3,-0.017040437227167086,0.014611124499912696,0.008376101022471287,,,-0.0152491486996885,-0.012243370529827465
CORT,-0.02662099496798855,0.04657049744572129,-0.020255488769847323,,,,
NCAN,0.0268448438407171,-0.026294000189057497,-0.004663646336990174,-0.024866025680173123,0.03909435384256751,0.03213559889381472,-0.04336243315332467
PRG4,0.12600974362673445,-0.024448162014070445,0.11914448953903806,,,0.003924856386544486,0.1000487444269138
ZG16B,-0.01739577004732238,-0.026395719695377292,,,,-0.019014047316940216,0.09990670105505463
TGM2,-0.027093772407591914,-0.018877667891378378,0.015485059316324903,-0.01328389137760417,0.07916347402049576,-0.011619596947903156,0.004611795702979617
VEGFC,-0.023953879651811553,-0.02049527209104477,-0.017488210204654943,-0.04659788578027912,-0.006513294782927446,0.011704555311028996,0.03970325924596776
WNT6,-0.002621948405678566,-0.024041565992549547,-0.015262826765759303,,-0.013781677714112773,-0.022963369964510677,-0.017692133052799642
NRG4,-0.011554148379945825,-0.0034501239989342086,-0.0204020370146681,,,-0.01524915040875425,0.010155836667784702
PMCH,-0.013316777805092599,,,,,-0.020086949578450565,0.024711128990261552
COL9A1,0.0804906879899267,0.033753408451940324,-0.02324763615175873,0.04044203445426196,-0.04127816434290518,0.024643842509609534,0.04711178323905571
GDF11,-0.00970679089286738,-0.007458945261964284,-0.02261619506283569,-0.05494413695881229,0.022903516287007927,0.05344611080232869,-0.017346034340797307
RAET1E,,,,,,0.008515298599342544,
IL24,,,,,,,-0.029744907440783407
SORBS1,0.050321237899524404,-0.0034759780515941944,0.047216615132308654,-0.00885964777515774,0.05732346048100134,0.0019927300422122735,-0.006316714700678477
DLL1,0.0237228977995959,0.050885988910772915,0.023184171982647463,0.042793284106367235,0.07241118886266075,0.01265324442092657,0.0005710479505773434
TLN1,0.026842189318626204,0.0116543981176625,-0.0024705085895198723,-0.035314448667984874,-0.030255916060231335,0.042546209747674486,0.0791130184872854
COL2A1,0.0036241404473944185,-0.02256596861790652,-0.01423918296052234,,,0.015563875420928963,-0.023970807237417804
SHH,,-0.017739593242249878,-0.013589772220757069,0.12758535136782648,-0.00889515607414178,-0.007011017910994152,0.043139541983408906
PON2,0.032449855536422066,-0.023946328274008957,-0.02812663637716674,0.057936149671522955,-0.0390372848936035,-0.009240337727856653,0.013676911332381225
ICAM5,0.01931133991459171,-0.006784828020719448,0.06714447214255044,,,0.019981117391796623,0.01300151112800679
HPX,-0.007406747684805331,0.0021151094186215476,-0.014588364539506534,-0.028153480821572943,-0.03255165439663802,-0.03519107458272828,-0.018026756645746073
SFRP2,0.12556352511966742,-0.01800974053140039,-0.02665965529069626,0.07119460823885834,-0.032975626407332335,0.029628210479398683,0.03783850900941798
CFC1,,,,,,,-0.023542348946763922
CD70,-0.030470781144144397,,,,,-0.023265334260321256,0.04175231417907476
HP,0.01307235660387228,-0.013661612564052298,0.00064078064605843,0.03380093316729928,-0.03687028002807737,0.07030469253381505,0.03625461731725235
CXCL2,0.024118571436260353,-0.03432838360508721,-0.013798229506120625,0.05113846700202161,-0.046689204109689963,-0.0009082234548501317,0.08787951772842822
NPPB,-0.016183930516179473,,-0.017488211476622623,,,0.038317264703521675,
CCK,0.028667351074137704,0.05205896497850065,0.07681186372451532,-0.028967510218896167,,0.022765262555714108,-0.0737640437437886
SEMA6A,0.007143126462993421,0.0030421968923505936,-0.009710563594531135,0.004282894786431718,-0.08182458573875592,0.0487019181713758,0.0020924107704843086
IRAK4,-0.03138005865652755,-0.017947561646920716,-0.04639291388844531,-0.021362698405281454,0.07187045669789505,0.05098684794959479,-0.018248152041693076
GSTP1,0.03337670625456281,0.019108350278173928,-0.008955291664555389,0.04181264356854647,-0.015274209738799371,-0.004014930443843485,0.03541885827557964
VCAM1,0.007546353087549989,-0.0013035160362521439,0.03203522380221578,-0.010432831738304605,-0.11598808420308532,-0.012816906725147681,0.03354115545362904
NXPH3,0.024225341387278884,0.06926591507165131,-0.026050653866109094,-0.02402538048396389,0.0439806349906654,0.04993110280671228,0.02707455574186976
MTMR4,-0.01164895749041128,0.07102172778699715,-0.046335095215500395,0.0013655686690846132,0.006467700614376433,0.03664720216636122,0.012205721292583722
LAMC2,-0.01270269321221339,,,,,0.00031393247197681256,-0.025620833487656727
IL10,-0.026839394512279065,-0.02961158926169554,-0.015654435582055887,0.09831775340264352,-0.03426764151593546,0.008777156084207628,0.05526070517706228
SEMA4D,0.03782681080244413,0.015319654847227972,0.0738413374707529,-0.02021092721298237,-0.09626387491545277,0.06596127432496765,-0.07460664052269625
TRH,0.0415299022415979,0.07396920152882074,0.007669728809360054,0.05356807379355799,-0.06433853876107028,0.12783805520125954,-0.01950271120590952
SEMA6D,-0.005592377671588601,0.0458812425169399,-0.023955324752140662,-0.006966086326895723,0.0028590437214994543,0.01595870348695795,-0.01244583207437414
CEL,,,,,-0.04223812186731604,-0.04958020408409895,-0.027372365145440593
PDCD1LG2,0.026232637323654374,-0.02521197284984532,-0.026778771491652233,-0.00971947740066555,-0.020931046797404245,0.044452206206076574,0.05294456217876275
SPINT1,0.03276789986656851,0.023173553139423552,-0.007885676894862989,0.057338984976933904,0.13536923652423,-0.011732791209633909,0.046212314251567264
CTHRC1,0.04233833982608027,0.013218989013976385,-0.005814244336526165,0.007376523681775004,-0.10816752594262104,0.03088919398563065,0.01041013128458248
PODXL,0.036859166648461776,0.022571195856082815,0.01976722225719659,0.023458405161426044,-0.01352838070896056,0.05723664570363061,0.10032776331369535
JAM3,0.03188579458057293,0.05164281698194885,-0.01617574546600129,0.03223992936672149,0.14283430067968558,0.05643113095318525,0.11105600051163622
TGFB2,0.0060190611274507705,-0.021405328691644555,-0.026718513724188507,-0.005044761360417394,-0.03135921178342103,0.058956044323285314,0.0024475420237060454
COL18A1,0.044878962052409245,0.0904764654334148,0.002084875568632617,-0.0564489793832306,-0.0053997551825844155,0.0032855830562825055,0.05882418608079021
NODAL,0.06871734064640356,0.04794095606198537,-0.02404233244081911,0.0073699121041530535,0.019466602247006443,-0.023711973830926353,-0.019883983073353758
INHBB,-0.039456769571425,0.008472569010139836,-0.03651728599945364,0.009642188270865404,0.030287339395058597,0.02725548162090329,0.05451043574057
LCN1,-0.012702696070371085,-0.019802946403607042,,0.04398839710018326,,-0.017520822228107778,-0.01797082877433334
ARF4,0.0002847812045019969,0.01731764406286874,-0.019941857822751066,-0.007531488992635459,0.012097690066309024,-0.0325762241273352,0.005465388632061474
CXCL14,0.012673995911757694,0.01710616131283291,0.030690559987206077,0.046896922930757264,-0.021999919941113256,0.08325765990449012,-0.01809261638864859
LIF,0.01947965199679568,0.0021499446469527366,0.017043133573176106,0.03245614061876681,0.0078530061250977,-0.06204625257500856,0.07186306726089872
IL17B,,-0.020435282421405965,,-0.01078058124117532,0.059475566269469995,-0.02959512029775555,-0.02031849252334358
MMP1,0.0026742721803758467,,,0.0013766044802834153,-0.03990731929313471,0.053952782392473454,0.010610794620728897
MATN1,-0.016678269366508198,0.13255409966098652,-0.014239181188524153,,,0.058644065540441846,0.08788564000139175
ADAM28,-0.03003099915086317,-0.03406900844489157,0.04327285582362062,0.019668880334096618,0.14603137108520645,0.020545772925791263,-0.039061303274032004
TCN2,0.030086279690141292,0.03237534819462622,-0.018047337197562633,0.03963161830972682,-0.006141486737903512,-0.014428223486823084,0.039789280802251754
THPO,0.04301424329874712,0.05460479486756921,-0.014239182824214765,,-0.04181539618461499,0.049451009049908526,0.0481188637246748
CUBN,0.02732461999124123,-0.018465367353698768,-0.02564997510511512,-0.041335424338577335,0.0003099533101319092,0.01660514796323552,0.002342571717928849
TIMP3,-0.008724174900303855,0.005432626672964015,-0.02135989109062276,-0.0005186487150304134,0.013277202184483692,0.021175068627567167,0.042420275362432674
PIGF,0.01856937212600347,-0.00899727081039899,0.035628009259000615,-0.043451734198125,-0.11695136101200407,0.0020940467082634215,-0.024638977954182503
CRH,0.19197901242489715,-0.004441510707910892,-0.0021638957837321624,,,-0.02598113692108993,-0.02783772788950342
BDNF,0.0040568474940390255,0.03193231853287854,0.23882653255706376,-0.011777659452149097,-0.07310504587465123,0.020932387424925654,0.04422467738677724
CCL5,-0.0417186829553446,-0.026348350230513646,-0.019317163842361824,0.039864719796738904,-0.05451225472195542,0.044688264131791014,0.07599409726687928
GAD1,-0.025498858754633744,0.037303373587834136,0.03413688528312958,0.0523605569454584,-0.01882627090484288,-0.00612280609620719,-0.0032857037336629547
COL14A1,-0.018854914592564307,-0.035129282028250164,-0.01820148386763427,0.008013693788893916,-0.023103272712807186,0.037275089255113754,-0.029286143783224652
HLA-A,-0.046911092925848406,-9.270305097664533e-05,-0.026062685708341072,0.009939894629415623,0.012773366294047347,0.04947477449597657,0.030571264018636236
CD5L,0.03017821790400472,,,,,,
FGF18,-0.013466170812705049,,,,,-0.017325831297845977,0.1320314965922076
ADM,-0.015590482073949401,0.05461895757471357,-0.058617880210184756,0.013338258311136678,0.013433904003523412,-0.047346851588779354,0.022018096454147144
CCL15,-0.02483049850501345,,,-0.02815349555087675,,-0.015026692139561268,
GNAI2,-0.004893627163998159,-0.03973594909040301,-0.008493584290333263,-0.02534505461588161,-0.036781995579342516,0.04223379189621774,0.03753686050661156
HDC,,0.01418810607770834,,,,0.04736479464610009,-0.018516437879726223
COL11A1,0.01875412413239333,0.03101807159290749,0.006713060123513047,0.0704006931270686,-0.014733450156713993,0.061229803650978555,0.013418906566086542
NUCB2,-0.032193136641603615,0.05798284454410501,-0.02136802822321126,0.008260654615414944,0.03258463010055223,0.015452028900669901,-0.08532189346811962
FGF16,,,,,,,-0.018245542408590866
CXCL1,0.01276643432175561,-0.018459803828246812,0.08639957477462983,-0.030151598212295933,-0.031390848457627386,-0.037801440777009455,0.08801577282623703
VCAN,-0.046720234850918946,-0.019296580579583944,-0.05212948657700508,-0.09243724756989115,-0.06595952018496734,-0.006524803193726848,0.01046774670805016
MMP7,0.006528875471840909,-0.014454517736970372,-0.02200810771944239,-0.07191231731344418,0.01432467271024788,-0.03935138666577762,-0.04296737044489719
PTPN6,0.027462460156426134,0.04168379721632136,-0.023342336788480585,0.046050752000252396,-0.037505144980675975,0.01671823833975253,0.019041742931801248
PTGS2,0.00543606202956948,0.05179026572457012,0.010857790452664228,2.5387213681191603e-05,-0.005685581503247749,0.020363229649686468,0.05075219163564521
XCL1,-0.016308798195955012,,,,,,-0.002892094514712645
CD58,0.02301573511999781,0.012530718619103615,0.006859837114654426,0.0009554163597749089,0.06928570691573557,0.07008842163205613,-0.025678580337004816
TNFSF14,0.06605658212205122,-0.004841040159443964,,-0.035882610495336906,-0.04052615791973952,0.01274869294543439,0.03257094877413762
CNTN4,0.08335504668677013,0.0016628598027199153,0.04713755646244586,-0.03348030284197861,,0.07740528740732543,-0.02889340509301747
INSL3,-0.01460967324767268,,,,,-0.020574949979132992,
BTLA,,,,,,-0.019894947868761392,
MFNG,0.017893982559938064,-0.0007812866513125513,-0.02645548229095707,0.011223585598686648,-0.03656171860948451,0.003650942505613793,0.010857226573983936
ICAM1,-0.08049259898290995,-0.01940938720458959,0.03734103625375452,0.06449702136891325,-0.02396187968916301,0.08305949501462266,0.044875032888908165
PROS1,0.041483650011885136,-0.032549986638336394,0.055212102114130426,0.06424737991114862,0.06320502210662218,0.02488472402056625,0.03233031582419426
CLCF1,-0.046327324890750136,0.028730681289896625,0.01973488212610176,-0.026183106549390746,0.003377849729382408,0.012704267040910131,0.04257449888660553
PSAP,-0.004480061408555547,0.04218473541601693,0.04028385694276816,0.0633047842973427,0.07973206196498547,0.04341419115799131,-0.022637604576750348
EFEMP1,-0.033510668896363234,-0.009886667614456196,-0.01376222561994965,0.011526649633814934,-0.03489170342638829,0.014052991138130359,0.03710821075765936
C1QTNF1,-0.01906906844051473,-0.01855632094617298,-0.011841663323020467,0.012786479099098755,-0.007708057624438823,0.07467030222134435,0.05689310539065304
ALB,0.006991723635584929,-0.007919591768982657,-0.019970692152899393,0.022685041231277434,0.024594477558499146,0.14024936974294355,-0.007349247820869973
EFNA3,-0.00811299079224603,0.029222348777883822,-0.00941676981490551,-0.04578171526462031,-0.04420674298689339,0.08839921386236957,0.012885717039826014
DRAXIN,0.020014344119900135,0.024084150795715357,0.014464113305764232,0.049744962217890834,-0.09304901698689404,0.04422319339154783,0.04086701961324861
RAET1L,-0.01138107734743244,,,,,,
NPTX2,0.008101564613692065,0.02638767963945841,0.042402148601556285,0.05249778599000646,-0.09852204247720171,0.07725966413536638,0.06434034728894764
FGF11,-0.05209224260645922,0.018129803261019102,0.01761610068312221,-0.049533313670910906,-0.10716036839981745,-0.02933391646166003,0.07285629913983459
CD59,0.0767397276190573,0.008187087445529819,0.0029583599283367437,0.0395982670685566,0.055517270384238135,0.06452520527805,0.004355267479687057
COL9A2,-0.0015911850714673862,0.03481931018629738,0.027546866879468602,-0.038544040654035695,-0.037944870783693185,0.03899697904830271,0.0011358668166662705
DLL3,0.046520729349746985,0.028361991898181674,0.022181265012871088,-0.00016215881978485605,0.08734985853293183,0.05553569937099584,0.05321307476378306
FGF5,,-0.019306662584459566,,,,-0.013235275903003203,0.06618853450201635
LIN7C,-0.0054173488417382076,-0.02699622825785867,-0.04114136430910877,0.026986548036079163,0.0035102822942815726,-0.03206984247533313,-0.04999766844454066
GDF7,-0.012996755414419884,0.010214295747493357,,,,-0.02934918199260038,0.0062477733268641745
PSPN,0.04681156004856925,-0.003429111654475561,-0.0273246738503837,0.02721451994979003,0.04937372229962403,0.015615050630567054,0.021386957632677332
ANGPT1,-0.058639343581106465,0.03225622875050453,0.06871813468063417,-0.019840568945715915,-0.06243306295049789,0.052271656026800284,0.03832002722579403
PNOC,0.02544596779532042,0.014383706725382198,-0.015766947154179416,,,-0.021235258431431692,-0.0121838102470154
L1CAM,-0.01958679357401251,0.04030710109857923,0.024864981882144713,0.028147235842977736,0.0862685817889928,0.006866561200125751,-0.024778131073876344
APOA1,0.005830485912364856,-0.041319178019763377,0.02225152860088099,-0.02484538601067417,0.012592664732549297,-0.005281294391086948,0.023335431399192037
PSEN1,0.04050074902910242,-0.0017071596573226737,0.002831597001325374,-0.02795278874673633,0.06339073021226188,0.035811571600572335,0.05761438823624215
CALM2,0.019563423097309563,-0.022159853305568016,0.05896907667957291,-0.011314778521307347,-0.05234089318538953,0.059119120301551725,-0.06929277082794169
CLEC2B,-0.021565408633153982,0.040490488246199594,-0.038834802317080745,0.020153363573795494,-0.08873894636667995,0.02562075398657581,0.0162956687676692
NTNG1,-0.010803098260598798,0.0321789173065716,0.001539151052874171,0.05005770151791561,-0.03156989926494866,-0.02207305488823611,0.001498677464205123
LRIG1,-0.03052179690054502,-0.02363849500650422,0.0366091354928201,0.005243734712375569,0.021419741967457624,0.008081454688479754,-0.021925883862098126
CPAMD8,-0.02286576120017026,-0.017465474532237287,0.07736973867913215,-0.030151594254398145,,-0.021558594740365207,0.00481001807851486
GHRL,-0.030322928629426465,0.035698464096836385,0.05672188652004471,-0.040623838148008365,-0.04746405025719561,-0.029595116581313155,0.01125326408146449
NPY,-0.028518373768849848,-0.00362457556129229,-0.008546020182167055,-0.03521053272409577,-0.04590456435068258,-0.02598112965778002,-0.06691449423392105
MMP2,0.06736085388907286,0.015075802950189803,-0.007682117196221855,0.10711046496418077,0.05218324043995406,0.018973915094910455,0.03182027457175302
PPY,-0.019190745494704915,,,,,0.014485005899692179,-0.02124727221679212
ALKAL2,-0.005551066153391089,-0.019802943194119457,0.06792616705950581,0.09653217273650093,0.11623982172603405,-0.014929039607741171,-0.05929444736992382
CSF1,-0.015291717219015023,0.007880395228714183,-0.010637891371977725,0.021866110558064863,0.038991720908336795,0.04707992792132363,0.06236464373349113
SEMA4C,-0.029794100783926757,0.06338466647806575,0.0631927157251418,-0.03669444437050393,-0.018154199226714924,-0.03353573214477626,-0.06187741729406066
BMP8A,,,,,,-0.018467125139493605,
ICAM2,0.05230731402148434,-0.0117271414750946,-0.029884065171477698,-0.044336861177658955,-0.03568886472700577,0.0413145878096968,-0.04528770988277174
SYTL3,-0.04563430615710542,-0.03196831916797704,0.019542528035172823,0.004931423606463388,0.01544470678390787,-0.03354907021189889,-0.009570464405106387
IL1A,-0.028967508762051973,-0.0062389860240113495,-0.0025812570406951708,-0.04215910513304805,0.0854106184908711,0.011060939310387166,0.00019412771483828548
HLA-G,-0.017512760441602555,,,,-0.037380160556993114,,
PGF,0.035480373299563425,-0.03513990086727177,0.022233381149105648,0.03785443817520159,0.05142230028749765,0.056650748377689526,-0.045998530769660026
LGALS8,-0.022188265264523454,0.0367515731442148,0.009093635144853795,-0.006998302655891091,-0.055609301743133874,-0.002324883313115636,0.035486076715569505
DKK3,0.013914297376842731,0.018774179556337915,0.024643358788213075,0.014468178634414837,0.02940241829506793,0.044968389322536724,-0.061132833235628646
COL16A1,0.07096707800050035,-0.026907627739806397,0.0019258194381898117,0.02750186002473912,-0.026655235232632978,0.05651413691806634,0.046321119226342876
TPH1,-0.012858813819245671,-0.02076204280527305,-0.01713623317047126,,-0.048609229738542245,0.024904151010954147,0.04540629161913368
TNC,0.018030732113820128,-0.02628642473568711,-0.013594652574814977,0.01388636689016397,0.07157081969352577,-0.004971401539203145,-0.01935029426482235
TNFSF9,0.008382880686066775,-0.002419718934428271,-0.004442661315036941,,,0.05732575490259557,-0.007998071606878307
C4A,,,-0.015063399926501804,,0.056592137825675404,-0.024868806260730555,
CNTN2,-0.04981951251130731,-0.05820613378098581,0.04762796906160238,-0.04510283888431657,0.03100076157163221,0.014656237588840078,-0.03670385237998449
F7,-0.012544742005724733,0.09585032016170701,,,,,-0.02480797011918537
LUM,0.038364869534178524,0.022972774497181863,-0.0026048912645369213,0.046789604937846195,-0.016455801699744317,0.00825156612487508,0.012842917146436735
BTC,-0.011381072606847946,,,,,0.012831727340145536,0.011193463138042517
APOC1,-0.013510039367208848,0.006846877228150055,-0.02904684200881571,0.11548017404897186,0.040842230953922434,0.026226270752238323,-0.0014051997222474927
PKM,-0.06679884514256304,-1.5274799041508577e-05,-0.024642358539559154,0.0895564123336951,0.017701992326283285,0.026863491046123622,-0.028886425356978766
TNF,-0.0292727238166611,0.03452833670100837,-0.017071473345333276,0.07209700609840025,0.044060932020190874,0.003136473304120983,-0.0193078374354603
GNAS,-0.05926534978767801,0.013930804169258992,-0.05049378147210256,0.030955138744721472,-0.015400587202151926,0.058842555760860775,-0.018890104393598284
BMP8B,0.045490417775037026,-0.025154642029596476,0.035894097033469186,-0.07849943158937284,-0.10913303835165139,-0.02321726226520506,0.0009570401709161916
LIPH,-0.012858810653506246,,,,-0.03738018211686686,0.04022238332516324,-0.013384121316486735
CCL28,0.0003866296956740363,,0.03528321984177163,,0.033517805927203506,-0.01433976260263691,-0.029211906109977277
PTPN11,0.012115152661822694,-0.0005443982197241054,0.021825192119093836,0.09745904515419554,-0.017049909503247786,0.06264329424500438,-0.04103961101870702
ADAM12,0.047464546315213796,0.015099100092306755,0.014220815550279447,-0.03591325286927277,0.05217320063082541,-0.008222381264661916,0.057827361629071615
EPO,-0.017278060657586386,,-0.017136235686985135,,,-0.015249145780035835,
EDN3,-0.0223994386684611,-0.030946338334914513,-0.017313056136684834,,,-0.027707586857249906,-0.03078772203449332
CCL22,,,,,,0.04984052697640863,
CCL2,0.041232940031376585,0.05994859200093351,0.03173893030139334,-0.00926883153838563,-0.06640276467530877,0.0027201644441782716,0.0841570856523705
DSCAM,0.0834717739786683,0.06139405956769437,0.011737853025480133,-0.04098055582631718,-0.012272532394179787,0.023644885399712372,0.040746378060008075
GPHA2,-0.014331797863294884,,,,,,
ANG,-0.04941448556861696,-0.04060120487180238,0.02198603867752965,0.06677147456961681,0.17419847159011448,0.03245825807752792,0.07051392688822228
FBLN2,-0.0171297043961288,0.028181603337314277,0.009085021565632824,-0.05224175334176159,0.012626817278871954,0.08960267407437446,-0.0013399328375397089
VTN,0.0356677047154481,0.10669348500887665,-0.014239180143499895,-0.02557167035883887,0.1060546371147349,0.008719207302242526,0.01659272260953251
VEGFA,-0.09579028225769957,0.05977750879722977,-0.05171350143662058,0.06369763341489683,0.06655754342812185,0.011714566025743325,0.021074624171320916
F10,,0.08020490157042048,,-0.027738364655519997,,0.034109746173633486,-0.025419747281843645
SERPINA1,0.02940663223890994,-0.03131748893739831,0.06708000047170173,-0.011884185810161955,0.07021419814337188,0.03072332446112356,-0.04491665173913485
VWF,0.03447790364511837,0.00317628031984407,0.012439615140804864,-0.0690569207953285,0.028898651972561768,0.008656331970653831,-0.0025404424060945546
GDNF,-0.020137828933400638,,0.0021529162521745577,,,,
VASP,0.010399583842232475,-0.0063017730293444315,-0.011668388905291654,-0.03313024048623174,0.07675975844156215,-0.01850101806894432,-0.005699463444496714
ADAM15,-0.038821202791459564,-0.07599180946921717,-0.01823204248813713,0.010016251563266507,-0.02460777716867995,0.0418065382542737,0.01781923302782762
WNT2,-0.02249334860185216,-0.02549324887111804,0.04783387090636311,,-0.04138920666540736,-0.03708385006728295,0.044294257582029144
CALCB,,-0.01930666237464778,,,,,-0.012739537703811636
OLFM2,0.047955735775289325,0.05666634921114608,0.07776418782584833,-0.0505416955662351,-0.05071875789855897,0.03926716804096525,0.04213601228494589
MFAP2,0.05249723104448367,-0.034348107427887,0.04677942139522482,0.10814864247173749,-0.020596983609392064,-0.0016605652983597355,0.02146417956546456
HLA-C,-0.008504062089840263,0.03493312064620037,-0.021820136736229553,0.06087736458738343,0.04699583214653954,0.04826451083373051,0.034517982361610446
THBS1,0.012965094658710787,-0.04393495366768695,-0.028750161421500067,-0.022490040947055357,0.0046417509122890195,0.026208381094292518,0.05300112088765451
HSPA4,-0.06515606029879872,0.0348246620784302,0.004422600312491466,0.05788086898649698,-0.06624047218022265,0.04657293550616312,0.06569167524549022
LMAN1,-0.013174584450979953,-0.010857340720031437,0.015240774708676656,0.013163935125048827,0.011302043635372698,-0.008916807638396236,-0.07154579354121433
LYPD3,0.158524094968633,0.06278360222786494,,-0.023641011158201157,-0.04138925298016538,-0.03162337320473698,-0.028120465614004102
APOE,0.024919449274385812,-0.06005081454081963,0.01875910965049701,0.021506414130279487,0.015258575903325416,0.06123410144164411,-0.04974077443282166
SOSTDC1,0.056632942509290525,0.03063274231325525,0.05466254261351573,,,-0.025430154392749045,-0.025406152692112462
ANXA1,0.010467660796080634,-0.007279784189678827,-0.03864532315873874,0.011976790587940078,0.05236173228951392,0.00485985706734542,0.0006648512123209139
WNT2B,-0.02117184077375578,0.030655263153370433,-0.02806050328573916,-0.027420709075557922,-0.07261083921766305,-0.014158885361668339,0.10486929380096255
AMH,-0.023953889140673423,0.09297709322585612,0.05274764643351875,,,-0.007308044447121593,-0.036079446546474374
GDF10,-0.014882719771446992,-0.006187836542881907,0.05053675076957301,-0.04766968029535744,-0.04730101806268735,0.0069701149663826,-0.03112890643695095
EFNB3,0.019250240368326156,0.06832512792722177,0.013537913571497195,0.14062252195817357,-0.04200660961207449,0.0006405597029275137,-0.04463562737754327
LTB,-0.025344613949434207,0.01651702711809381,-0.010531285389235753,-0.016415133764938722,-0.05817881061222026,-0.0441811468400558,0.043620676718703094
ANGPT2,0.0454368197305231,0.04761422817990828,-0.0023558361577993283,-0.01862978784103269,0.013275858790560724,0.009107279015301544,-0.009750535085659718
ADAM17,-0.03364723662390196,-0.02182660181234029,0.0034667846461825334,-0.04894160231061171,0.04152108642220911,0.0028597027493453926,-0.0266638238654032
LRPAP1,0.023048023474866553,0.050089868756182605,0.0015197681360785752,-0.010535026278538374,0.07994792041267976,-0.013511189987191858,-0.0017564725291204276
NID1,0.0423663590691207,-0.022391900048512305,0.009713513237906193,-0.02331645129309758,-0.02337916123352743,0.01961518364128199,0.0575781654019122
MST1,-0.012047306986773264,0.02236693101507658,0.04415333328560202,0.04317010383775468,0.042761210421824986,-0.03571197739365404,0.0992757665511903
IL13,,0.1411308135772752,-0.02009754968144981,,-0.0334893344347708,,
DCN,0.010138664987602337,-0.04105280562021741,0.01100821593483478,-0.03585521238653436,-0.02401466025235281,0.02898902172724913,0.06322479505437285
IGFL2,,,,,,0.018653882137823537,
COL7A1,-0.02407570051446135,0.05661112056873875,0.006782442963623546,0.012341044156257572,0.00896871191541875,-0.0070993062737234455,0.025222871502609615
CALR,0.0043291457262367656,-0.008821915997131238,-0.01823705255266375,0.04637185973089266,0.02535271146274464,0.023542375306650015,-0.0439317402318376
PIGA,-0.025766912133137164,0.06436110147197605,0.03298251785973134,0.13338696762541055,0.01763815601371442,-0.005916332417001984,0.03408822004009371
CD200,-0.015435435852318918,0.04259376986881653,-0.008899738838283123,-0.005091498510898927,-0.0007704006368719137,-0.007035610588941331,-0.009905274951852564
GRP,-0.02386478174361448,,-0.017313058742428927,0.14370914848338073,,-0.018094095227911878,-0.028851972977843806
CDH1,0.05858092811764077,-0.03971595385146333,0.03540382008231313,-0.019606346916857944,0.02948490977374759,-0.016246540537699677,-0.02996250858624395
LPL,-0.007866586169467723,-0.013308973360466622,0.014517757055693576,0.08357426437635303,-0.0893511243763057,0.061923194637446735,0.02146070325412533
SEMA5A,0.0474059223130934,0.005924976159827054,-0.011377561506749399,-0.04964405375181232,0.010868560779257656,0.024089047754505693,0.05993250341138
SEMA7A,0.026276887044884196,0.04656569354495322,0.07637531245734061,0.06639218147089736,0.06753758015451336,-0.017389316640997233,-0.01587346223513495
SEMA4G,0.015597593524678667,-0.03622801415959172,-0.01218254881235704,-0.03293313388229369,0.052936409872838465,0.006253581114635909,-0.04165092099613723
SEMA3B,-0.00022491063001370184,-0.034373589762301655,0.01742251138211658,0.03285419101104456,0.004606592511278864,0.022056226647872053,-0.04564995431827076
RPH3A,0.012604193513609066,0.028620372986954197,0.0405318671298828,0.03765557379141645,0.006370930646320071,0.14565248303613962,-0.05465379981568885
JAG2,-0.0016053441539629215,-0.01671010080510681,0.009013719048963932,0.07455163108177627,0.020337590656791315,-0.03762958273556692,-0.04339659706126704
CGN,-0.02877634364954075,-0.05132503752214629,0.012210388077446514,-0.010063320081129062,-0.04058251953093148,-0.0033224804497819275,0.00882647471932191
GDF15,-0.010397180657739135,0.014869598461259695,-0.019687537261941092,0.08623439326175156,0.0016468062995985016,0.05139396352304414,0.06379473112263973
SEMA4F,0.02380897704970328,0.07365318738393102,0.013485695228440137,-0.030354237399660457,-0.11080361282657351,0.00010606543332030956,-0.027287744097236874
NXPH1,0.03639174266643937,0.0013182488884034252,0.033440215408509034,0.08315846799616684,0.02101316710688645,0.019002287437248938,-0.02023657436755238
ARF1,0.03109681156043316,0.06855443127772334,0.03120105854680334,0.03257286255811668,-0.11833497170373317,0.019957002477002495,0.05476863087987481
DSC3,0.020348531140454332,,,,,0.03829947827190247,
EBI3,0.048905525093264034,0.03857110770410124,0.04422368952149033,0.028505670606202224,0.09952031991458275,0.018051302227271193,0.07341906026683807
TIMP1,0.05940844660214995,-0.018188586985367527,-0.03177036644781059,0.08151450694278525,0.04768393474404908,-0.0026404113053176887,0.007506569489449211
SEMA3C,0.007451936361819148,-0.004422107950989564,0.027353651703679635,0.020892887823206124,-0.018458789370485746,0.026893303338466252,0.0048116639767060215
GNRH2,,,,,,0.03342589978744061,
GAS6,-0.017372095948449687,-0.006467155859431973,-0.04033485398197389,-0.026818490760046103,0.06421246470525965,0.05961188405146943,0.006778079757431157
MEPE,-0.0046032065602885945,0.022572525645720244,-0.03174712395615786,-0.03015160533651588,,-0.02107191438427983,-0.005609060148771765
SERPINE1,-0.009795783491118792,-0.006558521292367441,0.008584452935488533,0.07922696469676782,0.014089079573188112,-0.023736011811177713,0.07944737985241192
RSPO2,0.02280853050028574,0.04946908410946282,0.027835698556375438,,,0.01174338315016283,-0.05181282554625764
SHBG,0.13093708049799396,-0.04144842263979104,0.10587237029774411,0.15118427110820815,-0.0319266944441913,-0.031970711864665956,-0.0348554516295838
LGALS3BP,-0.00953506538776719,-0.011796553270790735,0.013203493582100968,0.006151899738733003,0.05990484215900759,0.012882746620499586,0.08964863409554939
LAMB1,0.055256851956213354,-0.012280022793680685,0.025687330459649205,-0.05324975465560254,-0.0028772483596658056,0.009573472002894021,0.06105403680742036
SPTBN2,0.02232188652342386,0.018739631266685763,0.055725676840473824,-0.018277335455371062,0.018470671126705727,0.038445135972543974,-0.04874996720787374
COL1A2,0.04278146504566566,0.010764739152770533,-0.005083481171628122,-0.03112875743124849,0.02013930002326528,-0.002627902586211813,0.03999132565556583
DEFB1,,,,,,0.019998620659173252,0.10294396667138013
CEACAM16,,,0.03092600687320589,,-0.03964812631544884,,
WNT11,-0.015545870640998782,0.0015957259104405028,,,,-0.020237531604080605,0.09502648019653887
LGALS1,0.014026058855957485,-0.01793057608915841,-0.018814209175451305,0.02960310430050768,0.06334000923016977,-0.029692705859087405,0.04327608430717103
BCAN,0.023599416499654254,0.018771657274082015,0.0042148430718196815,-0.06170119511638147,0.017908867659666938,0.022251251389272655,0.02664399748460791
ANOS1,0.062206844078061596,0.05477617301669792,-0.008471276241753627,-0.013691208851677426,-0.011801147154419893,0.025203084179379248,-0.019686820446951882
EDA,0.10856036296886376,0.011123407313714565,-0.00727304579043043,-0.039096323648148405,0.058532755417072105,-0.02151005230712252,0.0021684540381094
FGF22,-0.016183935270611818,0.07150501629595585,0.10596307255833495,,,-0.029225581049896785,-0.029920821196386525
SHANK1,-0.015545869642973106,-0.016617287547926927,-0.019317160806108628,,,-0.011779896516099172,-0.016059354943900494
RAET1G,,,,,,-0.01901404401128404,-0.019819121027882573
TGFB1,-0.015283799657050186,-0.01754331131105107,-0.0449417510624037,0.014987211879754207,0.0697434686949567,-0.009996487485185944,0.04680819172861652
MSTN,-0.020116224282734116,0.040106950401942794,-0.01403147349569894,-0.00029860131137182466,-0.03133556567473066,0.05738192950001108,0.011575730232073181
WNT4,-0.010474772918945536,-0.01980294790592092,-0.001280169579400066,-0.009934606231150597,,0.039420700563840096,0.06827091137254263
TNFSF4,0.004621695530955154,0.017896044098754848,-0.02862708018551543,-0.00042712141673427033,-0.07403081509744679,-0.053554701116775266,0.008761188778957941
NTN1,0.024392962387921633,0.01813219592873507,0.022783053054896685,0.15102831258769822,-0.10873764271917206,0.05656135928011646,-0.004576975139516663
CXCL12,0.06014240808070524,0.05960793263008885,0.04277399138576441,0.04786990958781089,-0.03401027003518865,-0.005939262385913077,0.011851902623859607
GNRH1,-0.03032293313589319,-0.011080688447068566,0.04579403545665355,-0.04210636989766757,-0.06114332176488326,-0.03623628211532177,-0.02718258422092358
RIMS1,-0.040816043496629595,0.03360576682586392,0.03032270481797173,-0.038155890803789276,,0.019675729670786745,-0.01869388278946822
FGF14,-0.0085905639821074,-0.025725558977187472,0.013347417402218294,0.0682179130822362,-0.00796507184217549,0.008974819971915774,-0.027544570804635977
IGF1,-0.02004546706897017,-0.014462625337768853,0.08213326024382489,0.11249960627345862,-0.0760666195927143,0.09858337540909332,0.05479111582294213
TNFSF10,0.0006138072919669054,0.032305819780939916,0.007544115897216457,-0.011500655338368899,-0.04446930743906181,0.020117150760594858,-0.022312131313027467
GDF5,-0.01605818300596946,-0.03078223755403187,0.009619579665654755,,,0.02878375728322448,0.0060802141836302104
RGMA,-0.006022854826477353,-0.01876483183751252,0.04600630078999036,-0.030619999692261868,0.08526914620418496,0.056025879777474995,0.05334818844664117
WNT16,-0.023455043378824907,-0.025070059797640903,,,,-0.03572412549769621,-0.03009586118440163
CX3CL1,0.03566528887556051,0.0030287459905717806,-0.03716244338737024,-0.010276827627063273,-0.030367776821657085,0.04464625945852837,0.010402954512529879
FGF1,0.02886742657264271,-0.06327417081105044,0.05339591110969965,-0.0398006916162566,-0.10526197671973819,-0.0020185034886646192,-0.03744555422781283
ALOX5AP,-0.013874179080729316,-0.028964904888409,-0.032607998051828686,0.05569090374730996,0.059618658057063116,0.06277090351635259,-0.009611638083148506
IL1RN,-0.0259103345355761,-0.017739597940230056,-0.015063396610660185,,0.11977839116455904,0.02608627564437753,0.05746839612384437
NPW,,,-0.016777344162391346,-0.034870385259992816,0.11619730558019654,0.00714623935577171,0.015801471307894555
CXCL9,-0.037841244259407825,-0.021455021663433282,,-0.008971296982821876,,0.01999130855700468,0.03151481199371999
ANGPTL4,-0.07667948622354423,0.0022825072899385537,-0.060208146648422306,-0.013747906394492807,0.09017984714545338,-0.00890071325164512,-0.0367157461554436
UCN2,,-0.018798061819275427,,,-0.03691277519654684,,
OBP2A,,,,-0.03276622435791372,0.05264000306467421,-0.017128781915616294,
COL4A3,0.046024330162681544,,-0.018996778410036184,,,-0.02770758856762242,0.0622067186117464
NRG3,-0.001579355667866178,0.0477678072384144,0.008172510145956888,0.09194093953435711,,-0.013922569466993967,0.0020052038862039792
IL23A,-0.017159620196514055,0.07994031531285899,-0.023112838175556837,-0.030151599003875672,-0.012467397990476687,0.043381917725182,-0.026606253778176808
COLQ,0.014390165513128073,0.07543376418745329,0.01019821624202923,0.06459600939321988,0.08425705275830196,-0.0027525037842143136,0.027758087756229923
TNFSF12,-0.0023366363651553465,-0.03104226981072942,0.04730024193980138,0.10056173359692186,0.03522739060793041,-0.021942120697161373,-0.05002945350348853
DKK2,-0.017973881000514797,-0.03347819083629581,,,,-0.003253940812088347,0.02489519057960472
FYN,0.0006450794251762619,0.01819867811166617,0.0030261205520429775,0.027966508059464056,0.030012759490621328,0.0023137645286297336,-0.03118704306530146
ACE,0.04168784376930274,0.013642688316685678,0.0443071334654804,-0.004379223871295127,-0.0010173525717952162,0.0006106835702145368,-0.06655272716806844
IL18,0.04039289973583786,-0.020430874586170905,0.042211664311824826,0.08105934768310975,-0.0027207141770919535,0.0680583748333516,-0.0323363167392398
PPBP,,,,,,,-0.02221273334579364
CCL27,-0.011381076582821635,-0.0008115297901879816,0.0521008895480616,0.06651119512794493,0.01941445223553524,0.021932725185758825,0.1655095350300873
SERPING1,0.05360893591202317,0.004500613400550184,0.02781545391427166,-0.05452420053121147,-0.009336444569214758,0.021168943884632925,0.11607402847484238
AZGP1,-0.03682917810341014,0.03635146345098013,0.021370084024204514,-0.0366120722008948,0.16704198473497725,0.01865262301522103,-0.028686605781817393
INHA,0.044281306184560554,-0.045074285660112665,-0.05057731040384788,,-0.001567524705690123,0.07336843740094624,-0.03577647957835598
SEMA3G,0.10525129769789808,-0.036147434314942856,0.010979991678508851,-0.03888950493784226,-0.03404971072905909,-0.042304692071757105,0.02402388455061208
COL6A1,0.01282500864222148,-0.010235380126181172,-0.018592650121735135,0.0361093210962717,0.1127817058256855,-0.007797687889852359,0.04119557955040598
FGF17,0.013863367544162576,0.02694438212496057,-0.019943707419208576,,,-0.01631847565522437,-0.03375620509369152
TNFSF8,,0.025251714796148482,,-0.01711211358939797,0.07069940105387147,-0.0011967424733458287,0.03497240466587597
FGF20,-0.022586934726333684,-0.01478501870620833,0.18663992221366799,0.002558144540554482,,0.0032045235454598205,-0.018516450712734635
ICAM3,-0.01100364928202841,0.03831093162485443,0.04851936281456183,0.02971179420056252,-0.007211390102338947,0.019636992889557923,0.0013119322937782407
LAMA4,0.038116631992329925,0.05343128675398769,-0.018233008948205537,-0.058187370185452655,0.01076165887895786,0.023893598483174936,0.02000660847071745
DLL4,0.02223345154770811,0.045758953343892024,-0.01093635006379571,-0.049458073464973086,0.026236191643656658,0.07935372918783536,0.05113911121644817
SEMA3A,0.030510035844342847,-0.031327813527607905,0.06381860946599269,0.1161296594334123,-0.07950183940865281,0.060226814585616795,0.003494192587144746
RLN2,,-0.022782132921315992,-0.01444944210224218,,-0.044708223785122965,-0.018833351709575907,0.14177060720383894
C5,-0.04638082609587422,0.011437047193230654,0.024725264497205073,0.12889049320150422,0.0770517865682744,-0.005164926085498982,-0.03056045040596491
COMP,,,,,,0.04704848680595474,
EDN2,-0.012858812627838086,-0.02424563988652832,0.03458427819081088,,,,
C1QA,0.024015814457293855,-0.005541611351653048,-0.02965772241515976,0.07061083453761709,-0.03880890571680119,0.07347511887387392,0.05909864079139474
UTS2B,-0.013760379045234701,,,,,0.0010621016547291693,
COL9A3,0.04050530779806741,0.04279718040686904,-0.015463984601768151,0.06573418267758145,-0.028717502714350016,0.07133100796603686,0.01950131467055484
DLK1,,,,0.1241178590430246,0.046265657296983294,,-0.00918471090004017
HGF,-0.03573712949717857,0.04906650848444496,-0.02200810620434879,-0.02606732614318564,-0.07864907962936807,-0.05970411211446161,-0.0554443128151237
P4HB,-0.06300158460580774,-0.014584599580029394,0.00295069740866256,-0.06255656809861684,0.0906443128084089,-0.0481875126823827,-0.003256490897648184
ADCYAP1,-0.01440878941158701,0.013551136052458026,-0.004887987710515704,0.029748421526496805,,0.10511987409861075,0.07005055266237022
GREM1,-0.018087515510629246,-0.023347051498854975,0.01105175931032875,-0.04338483941589776,-0.05300840807172582,0.021361621317337896,0.007910222903427747
EGF,-0.0072684363706696726,0.008891634290112542,-0.026299583795296146,-0.027317568883860898,-0.0170347759118856,0.059883866183020634,-0.057504538100051635
VEGFB,-0.06820062567056569,0.0030496829943819784,0.011650445154988762,0.02508008990385697,0.019443668327861378,-0.0249432848185665,-0.020732212468371366
FARP2,-0.02291689434752897,0.008183962517295855,0.03766112854610998,0.03385913195844931,-0.018485965618465477,0.004332703443825053,-0.002029489701493759
LAMA2,0.06679956029541564,0.026012639881988014,0.02707331258622615,0.010140110713507478,-0.020595490672281717,0.004215752536819191,0.02257878993194719
NRG1,0.032660399177998185,-0.028718517925374,0.04365244563057803,-0.026890791248374343,0.05970307086498498,-0.008375625500402845,0.07837958988402365
SPINK1,-0.03847629502308426,,0.008532051527038238,,,-0.026252924786622143,-0.06325456266116773
EFEMP2,-0.021006803598658527,0.02284423145440844,-0.008404423151408944,0.0561645682050152,0.08529131961242593,-0.016848910527302752,0.09055915913108563
SELPLG,0.012628766479012022,0.01626075982823644,0.01332048497087355,0.05102457530071821,-0.046675211154269314,0.06064588680900591,0.07888043367860732
GDF6,-0.02182881077711535,0.15956265326305613,,,,,
HLA-E,-0.0012235579944849051,-0.010806295364192864,-0.038647450103906314,0.008497099874598932,0.09608954477461656,-0.012149816251373345,0.04467040048536347
PTN,0.07689512926411353,0.01053602727133003,-0.037315003891166515,0.1456897452262091,0.004700723676816188,0.05429176701644768,0.060800725462101815
CD274,-0.024521755108186896,-0.007817358818542394,-0.009752336160386794,0.02900797252256422,0.12059323780243461,-0.04949886611031713,-0.0018093564498016922
FGF10,,,,,0.02492061390613895,,
CD14,-0.0008405901313482982,-0.004563996967764976,-0.0013316201076482973,0.09822250923995672,-0.06163661019273147,0.06250237560827232,0.07017357483888266
SFTPD,-0.020748190757044354,,0.0040887563777295055,-0.03452738744782674,-0.04052626365264301,0.017243320448040337,0.002561650571685471
SLIT1,0.008261870775770435,-0.012078111755693986,0.034725993559410605,-0.004013287127953156,-0.08694206452742374,0.045818842835916404,-0.04998898889698439
CNTF,,-0.023835899494868747,-0.016777344240178037,,,,
BST1,-0.012413202085665648,0.01405355658586002,-0.03492754953740928,-0.025764412518033204,-0.011056248724347408,-0.0023585509810025813,-0.011127237878659768
AGTRAP,0.051737481225287034,0.005231903685035422,0.012793983847832738,-0.026961395889148504,-0.023699574588351157,-0.06029235495427499,-0.005979705055250784
LAMC1,0.03405596874110874,0.004626532899600398,-0.020500761235362253,0.012385182696388134,0.07566391700193985,-0.031175045291249585,0.038287752801599434
COL6A3,0.043076305962015816,0.01287781049161545,-0.0199949991922399,0.04207278016196533,-0.01317793859085266,0.019545091308675,0.018157119787727972
FN1,0.029092048415272964,0.020050900131982227,-0.0028001012693907082,-0.02633776421144632,0.01010259398712246,-0.04691359216706085,-0.005290878562914808
MIF,-0.057427060213762156,0.041485907822706614,-0.029330791657492198,-0.003194352204616844,0.051191925076195584,0.04280863181463223,0.06530069274254618
JAG1,-0.009414863967263503,0.012031942525017096,-0.03326102536328118,0.012710625798259307,-0.05634598265841755,0.0030352380673685157,0.02164235195879273
NID2,0.06792985005086179,-0.0037849737369295452,-0.037356789021345864,0.07890688268743606,0.04429212420439705,-0.0011542899113283138,0.018001554694311896
EFNB1,0.046266783393510376,0.036938999087151834,-0.0068110891462365404,0.07649817032860694,-0.018537112266436458,0.012758475538230698,0.04389166359396799
COL4A2,0.045138755905673365,-0.013143364274318092,0.02044253046988001,-0.043261716564117425,0.01909404519343173,0.0033303499294701426,0.012333857002106608
SPP1,-0.049503594333965825,-0.016453998598483763,6.467525105639604e-05,0.053164477869857014,0.050170142257719104,-0.02725195251946836,-0.013575255695550448
PODXL2,-0.0021643979811178057,0.015864042077839924,0.0013676950582344088,0.008408949410328019,0.0345747694332811,0.02212210578599673,-0.027932078558490267
FGF9,-0.04101863006573941,-0.0046205988276684,0.049772010500612605,,,0.03974661041202855,0.0266066531235942
ITIH2,-0.02173247390202386,0.009898705047397618,0.006194207097538874,,,0.026940302130630076,0.0441733909243701
ADAM10,0.0363085491983831,-0.0420036353053854,0.01902405749077155,0.0008455481154311711,0.020222756254109454,0.03618265778829082,-0.0447407639170602
CFH,0.018746206374681385,0.0465273506644853,0.056586449598334095,0.02680057290742466,-0.0064458289294701265,0.014720400754366508,0.05084138138887303
COL4A5,0.07339450918883961,-0.031943316078359776,0.027305015572172547,0.04348366289563018,0.03515741112722511,-0.002064424226839215,0.03917778769496018
LTBP3,0.001816422985148838,-0.006999322442936915,0.009434865156770816,0.06257063640510885,0.04574442670926317,0.010620877209226023,0.11569708619818837
GNB3,0.02013476823995979,0.01021542266917906,0.02357915005085659,-0.019630266440388733,-0.025671429776063497,0.025936330509721797,0.04699991639005668
COL6A2,-0.040047415486996404,0.025802452932106885,0.008947604236927701,0.031875946548298215,0.08227990424340341,-0.0011587253620662956,0.06839040984673306
PLG,,,-0.02103209814438474,,,,
GDF9,-0.031874022386137596,0.08081350180419637,-0.010693966180787065,-0.03521057387995014,0.10890675426871603,0.029273488042517153,-0.03438774389934459
NCAM1,0.0058415002255536455,-0.012315878391805481,0.05301668911599661,-0.05489453598545292,-0.05354263310474875,0.03843562300215226,-0.0067098002893468435
APOC2,-0.008324646267768972,0.02534744559341845,-0.02488798956922897,0.06075607503253203,0.026551021982280848,0.04407300050022187,-0.048695667408845456
BST2,-0.0003062707573392905,0.019104620279170478,-0.030847896523798005,0.04010389148308958,-0.00921982875429662,0.07421910588031837,0.037928130059140384
COL5A1,-0.0005004804167089954,0.00043454827103281624,-0.006778419780121527,-0.009258919371286187,0.010342561886867895,0.005321632016441901,0.04356985573552651
CALM3,-0.0065200482572811405,0.019229629510336722,0.011806685900200441,-0.024422897677246733,0.03562064870376265,0.03156762699637357,-0.022447336376632095
THBS2,-0.01908118976499004,-0.00388098782506059,0.0024281688281638184,-0.03793922556470852,0.017000385110936548,0.03019352651190098,0.019621056964812623
SERPINE2,-0.04991686913710535,-0.017472960331221206,0.009593529949807231,0.01773365213623025,-0.02682248803709663,0.016950989415850333,-0.10375282000191607
EFNB2,0.04441023375085711,0.04407994661054742,0.038165902063708575,-0.039136691473549146,0.10569942669022069,0.008135921429857767,0.01672733052523285
PROK1,-0.021047620062625567,,,,,,-0.024807938081894593
MMP9,0.11771980931512094,0.009278945321472266,-0.03926791555473294,-0.021493238256541775,-0.0580378457764283,-0.06388923599751285,-0.011606837334828977
DMP1,0.07293621125349341,,,0.04093138735286288,,,-0.021047072795623227
NPPA,0.03687244616955418,-0.019629277172402114,0.019135594613585317,0.0270875874257511,0.0018346270943275182,0.12251402007781433,0.007403945579826769
APOB,,0.002228239554372472,,,,-0.015468572797783967,-0.024807937692384218
C4B,,,0.15487762979234856,-0.02936693354065632,-0.03449682798499058,-0.017128786705029188,
NTNG2,-0.03995537448014436,0.09198825091617958,-0.009832489131803802,0.03620044990386386,-0.002699005163344824,0.06814754624866294,-0.006878439037586805
LAMA1,0.036521743793168894,-0.02440370023142196,0.03283995447207242,-0.012338464698900172,,0.07880465291520694,0.036784024087405845
UCN,-0.01875637100341894,-0.004825096833398702,0.0505925765334917,-0.04411498529442567,-0.038300585835219,0.027286513691607145,0.00602264533543953
ARTN,-0.02044498427414717,-0.027685573062640117,0.06493084017185556,,,0.05248836201697616,-0.008178087327167224
PDGFD,0.03723188963809792,0.02655724103203147,-0.0002957399963850517,0.0599445485497156,0.006758485957385402,0.10726096994852681,0.03604974962392375
EDN1,0.03772834842795811,0.061150527693903944,-0.07217394288312268,-0.013956647150860447,-0.02469446338312408,0.026686449540184072,0.018661355345388545
ARPC5,0.007904601652199366,0.012597106989721583,-0.032847178438965535,-0.08784952537522986,-0.07656891887914445,0.0181187446225056,0.011801183587821487
GSTO1,8.677196243862142e-05,0.03433518918376541,0.008931786508533757,-0.012874854331233,0.10805135348368435,0.026900590220254945,0.03724885500274113
PROK2,,,,,,-0.014103739283611076,
SYK,-0.01573342031359942,-0.04356045827016893,-0.0027418719720259215,0.07155226265123316,-0.021497551975593995,0.05434650329949126,0.02378696003684821
CD40LG,,,,,,-0.016728215264562057,
ST6GAL1,0.010844457293565014,0.020771878996765906,0.06635743973054607,0.04323843748601584,-0.004849284237101492,0.04782785872208741,-0.010359229191147006
WNT3,0.01682012614412499,0.05943493670830848,-0.011330565797538432,-0.030918484821974974,-0.003862898946085958,0.034740063259714654,0.004950719298136019
HSP90B1,-0.012239218201525919,-0.013646659108868928,-0.030269305045449713,-0.045391569850008875,-0.04234200997614522,-0.017410418541444712,0.008733287032503789
ZP3,0.1009633911980596,0.027996677429927258,0.08972017552110616,-0.04659789572240491,-0.04707784353737969,0.05450479455941476,0.017076460186030124
ANGPT4,-0.012059129268548678,,,,,,
NRG2,-0.033397329741235306,0.023583891005266807,0.018863186355888135,0.0678357695830416,0.02033072701813427,0.07114097539849097,0.02067783590955014
MELTF,0.02872656283091801,0.018830379872648996,-0.042880671305572236,0.06753516981984793,0.055137793332676495,0.02168813836251916,0.0257352832440066
NLGN1,0.021591716649823747,0.08940902829024037,0.030611112024564936,-0.007553094912474906,0.006585364428763276,0.022287872676861154,0.01348367517891663
SLIT3,0.010484556982247656,0.016977096336999217,0.035398550902526145,0.0327735928428241,-0.06431692629616936,0.03167521022990357,0.018992150269024642
CCL8,0.004461469609020315,-0.02383590001241523,-0.01565443745040698,-0.040018474168967366,-0.07721888351939817,0.1232088268349189,0.043030136896214544
S100A4,-0.00740956726975395,-0.009112694842770797,-0.01314677431439534,0.030493406781625827,-0.05211081261810448,0.03653052661023559,0.033272125396154935
TNFSF13B,-0.0054791894459693576,0.024597288179079604,0.03378145263262685,0.05576974289273168,0.0913774637407882,0.07746460515564389,-0.013056574197399274
HSPG2,0.06268335102644133,-0.009165241281682042,0.01913926868348178,-0.04678279305188891,-0.016284333081763646,0.02445482540332188,0.02186979117937499
FAM3C,-0.016104570165322192,0.07406515817321917,0.02829020238338351,0.01944150952244554,0.047477678400576866,0.02653680899295359,-0.042252836659414324
FLT3LG,0.01199223630521821,-0.015173699605605643,-0.008373133132086099,0.04855529163847102,0.005478609172723372,-0.03532897222318152,-0.018605875608716065
A2M,0.03522520068005248,0.009437281865055502,0.010117915456838194,0.028811098308895722,0.04402968013959606,0.025225450427161643,0.08115076026906452
VCL,-0.05571005285914812,0.027382962615811142,0.008317550193004715,-0.03402565452659985,0.08297038988953617,-0.0033405161294339115,0.026208677545987377
FGF2,-0.024992224780451506,0.0663178538201188,0.006366587509874894,0.05950057138886352,-0.04248414700326513,0.031107096706216024,0.00066814101043009
AGRP,,,,-0.017490015701588587,0.0015284149742695898,,-0.01851644613858996
CNTN3,0.006376862519322111,0.008350987365870064,0.03620584251077959,,,,-0.029384168381055724
RNASE2,0.029111500657529474,-0.009052990344690834,-0.008997578694968629,0.013887627100475372,-0.010873130923061991,0.04514245780856918,0.05526654290995474
ADM2,-0.017159620847974184,,,,,-0.015898862637398842,0.15463596022185058
GAL,0.0696320570002737,-0.028222280687688835,0.009296360794141732,0.018340254145681797,-0.049418577661449754,-0.015685108114912666,0.09740308013598865
IL36B,,,,,,,-0.026606228587665533
CXCL6,-0.01285881061946605,,,,,-0.028726877988599162,0.08284395746209315
PDGFC,0.02179556215505879,0.045938602931935225,-0.019513754771304265,0.035653298664838046,-0.00885708643176342,-0.015770281800899205,-0.038644793838389126
COL8A2,0.0718207375347903,0.016085725229359624,0.02367314218477456,0.013427508380163523,0.09873732400967514,0.03734166510212549,-0.02220397468229337
SPON2,0.0442610143488882,0.015284161200640176,-0.03628389153955792,-0.007151250031419199,-0.04189567680877027,0.01391996733053358,0.004224823173670793
SEMA3D,0.04430161984980407,-0.011783139137462336,-0.016957673688013892,0.08162198923936669,,,-0.03667958555368584
BMP6,-0.014746781819413014,-0.020287811765089644,,,,-0.032769996564704834,0.053028111643675345
TIMP2,0.038151196278569784,-0.051276137199076796,0.011697346779624399,0.049806169513803386,0.10121095609741869,0.06934532370374882,0.00964028941073129
EFNA1,0.029020536183094296,-0.02930667266043222,0.0015545047848114484,-0.05268774462152053,0.010509621884830806,-0.014378558433868748,0.010706798171997989
S100A12,-0.017629057461977595,,,,,-0.017325824410844085,0.011427801306391011
TFPI,0.03573919180046543,-0.01648736742766464,-0.005923523868014343,0.012889508519620058,0.006595719004474172,0.039548840139933046,0.0054922632799818015
GPC3,-0.011808823740474608,0.0012654199415165978,,-0.03588263261830677,,0.03674518940690398,-0.03668539875634675
NMU,0.03410868149686668,-0.046750281079960626,-0.012357880558945782,-0.05964964541944434,-0.016936431597038247,0.07172120158916956,-0.01818088822527965
SCGB3A2,-0.020137823575044195,,0.0894631729011077,-0.023708554327669093,,0.009168697410206511,-0.0203184966038537
LAMB3,-0.024853529579102956,0.013951191443939782,0.08178683532077409,0.13529069489363718,0.035378518325960624,-0.01250533063601785,-0.02939644251750341
LGALS9,0.02111575874989,0.009729284112461893,0.028754313933569836,0.04542479879324585,0.04740328374000453,0.03217609217804327,0.08453738192028405
VIM,-0.01452465216133459,-0.03889547558635717,-0.058925996007437864,0.08120167643695603,0.07361626234112074,0.027620456723120877,-0.03606607733342853
PLAU,0.012110477061707089,0.021327140891363627,-0.028844005874763972,-0.0038961834647612574,-0.009166464756444434,0.008946326463371653,0.06183561223064556
TGFB3,0.007811356416532513,0.024518254440478567,0.007863509853515823,0.056587340958119195,-0.018751945869099392,-0.02059586375359265,-0.02200732326076792
APLN,-0.0007300281592372219,0.036739224649451896,-0.04340174005332734,-0.01673000503379875,0.03789312942706555,0.029642157754889025,-0.026593925072550838
SHANK2,-0.03278330107710799,0.06911834013916517,0.014143157946005248,,0.005681881956936762,-0.02472676486055702,0.009410156793042752
LTF,0.12273546865496571,0.0249455192354126,0.0650022074690388,-0.053092302357596426,-0.15421364889565975,0.03857716055615707,0.029200981987986825
PYY,,,0.01018503179925897,,,-0.010182549061242614,-0.018516450712734635
PENK,-0.03367328126421826,0.03937493245519383,-0.02506735167784983,0.04037228338985127,,-0.018833353815682907,-0.08172474838668119
CTF1,-0.011172456712519823,-0.02089367075942018,0.027604866069226273,-0.05593155048557673,0.03631383266350247,0.06961523974912273,-0.042581177002123244
COL3A1,0.031575224940302994,0.003205175406894421,0.022563725884049913,-0.02870682289063676,-0.013565858786885942,-0.00610270874222397,0.030068610396852942
S100A10,-0.0030731327014232365,-0.011610413020306562,-0.03961541845386169,0.03147133372692084,0.017103629845164538,0.003679815299274582,-0.004951963142511901
FGF13,-0.0021254219654206936,0.049329700033621124,-0.008599259876883225,0.023011145198825557,,-0.02598113300330383,-0.04534573803917618
SEMA4A,0.006035616317950377,0.060408336847998685,-0.011817737530142817,0.018988754870389854,0.034236773104476564,-0.04126325041073639,-0.050428747243217435
EFNA4,-0.030097468618489793,0.05281913985579264,0.03710430931673881,0.15912725898776114,-0.020238966925055193,0.02938114238661185,0.0638649644561345
HSPA8,0.06701326123429698,0.07761939988140648,0.05106101446583713,0.050230747499049516,0.03133999525670263,0.10551252208955335,0.00932978854472102
NPB,-0.011205448293416775,,-0.03164372241306261,0.027376845588429087,-0.07920820900819238,-0.0416886865865869,0.001454953920753763
ULBP1,-0.023505578314136667,-0.024041558347037546,0.0061210129192246655,,-0.005532380749389516,0.03125994184536259,-0.0228328449824503
SEMA3E,-0.02130127744264725,0.058355762694845006,0.005088501547325771,0.06975340078034137,0.002606280058302486,0.03520115066623832,0.0428427378608004
ADAM9,0.044565216287979305,0.028599870230042183,0.01709833392585473,0.07328671957854878,-0.004847463158545161,-0.010904030371557677,0.03756943119503828
ASIP,,,-0.020097548201000428,0.04516760307908722,0.016470698923632742,0.07159710725567109,-0.029074940131367518
IBSP,-0.014663579994958096,-0.03798391100350133,-0.025964995461739013,0.012565513623167551,0.013239041345952182,-0.021514477176362432,-0.0026965931591105075
MMP12,-0.011381071804007612,,,,,,
FAT4,-0.02707061677793501,0.01937467954177722,0.06484156536488894,-0.04976153638540415,0.03233353430057362,0.00019132448322411194,-0.05923933022288554
MDK,0.06533829152650071,0.005240869605990813,0.020681407764656448,0.07545307975132796,-0.0038933715044680663,0.015555303390279208,0.014457838859865313
BMP5,,,,-0.006568033024804578,,0.039172827091251035,0.11167768700388887
CAMP,,,,,,-0.02057494117940318,-0.025419739656714936
HSPA1A,0.017254182921573182,0.027571949419879695,-0.043048064925016755,-0.030566049730807607,0.013712869489876505,0.02013905068831497,-0.05077556296952288
SOST,-0.017629057512842272,,-0.019317163057711986,,,,
SEMA3F,0.07358624547171358,0.07686800172554684,-0.020658720878581765,0.022544586444940576,-0.05821302828616993,0.017329628695873504,0.028187949346562345
ARF6,-0.002588485763602662,0.018019624365161142,-0.03835896300850319,0.0738841571827083,-0.0356863903963338,0.043279262992322605,-0.05096539699123773
IL6,0.006870812401982924,-0.05329700082641147,-0.01994371417788368,0.2015066941045423,-0.04052627710961737,0.03000421761914013,0.07239641842398284
CALM1,0.057712717976477146,0.022192759837517527,0.036925146903543205,-0.07236624089163984,-0.09794605052322668,0.01060198169197018,-0.07536600259485851
VIP,-0.0363551553443073,0.03318929859280072,-0.029404944121804135,-0.02815349555087675,,-0.02171865393651873,-0.05220368956250293
NMB,-0.025596923125201003,0.01174989953527213,-0.025884136202835806,0.04945604876860803,-0.08454930285937656,0.03467314271391112,0.06398332264480208
CCL26,0.06466788938006836,0.0072309760682647654,-0.00709743862652704,0.03529262163403345,-0.06866670363630374,0.04435344814346492,-0.03929382044268457
FBLN1,0.06771613738152499,0.04683786169714613,-0.03544208415436612,-0.017339479748154505,0.04617431898842553,0.011019384394229628,0.03482838819303934
SAA1,-0.06067813588018662,-0.02180313392196995,,0.05591085637433807,-0.021612461829434885,0.08471834305238828,0.04801300932325069
MICB,-0.026765522715033685,0.061315799063496365,0.002700369002788387,-0.06711609284748425,-0.0006307485066777819,-0.001778297354043489,0.11531091732751042
MMP13,0.08679667630182505,,-0.013366588435738812,0.037203510278776476,,-0.01883334585928239,
F13A1,0.01608562462884707,-0.04000924103508354,-0.004465401231357498,0.08068683982058829,0.08875861503091637,0.008031766581510825,0.07632501940766968
CXCL11,-0.013247000030517818,0.006381951244871058,-0.01641109529639322,,-0.033489335561354264,-0.03068216314252417,-0.02571038511386995
COL5A2,0.02257902326634343,0.012778715917503283,-0.028240945291443394,-0.05544040479478999,0.0291482413242938,-0.01834974189686059,0.057928447654645256
EFNA5,0.016415357366795127,0.0023501626794514975,-0.04494842365439483,0.058686347412806796,-0.030890988984171395,-0.025852919836211942,0.020556160605984173
AREG,-0.0324894769139343,0.02358321495369091,,,,-0.013789523750845313,0.04805708754196144
EDIL3,-0.01108570872027765,-0.005546083910552206,0.018554641103836155,0.00033586580592528405,-0.0632538327334586,-0.01263275354130415,0.012710274205784805
CD86,-0.05271973591383384,0.031088900835605407,-0.00928450494337233,-0.018089528727310535,0.07043211655084522,0.07594799015886793,0.0569457949831379
AHSG,,,,-0.029366945291268615,-0.03192681421272476,,
HRAS,0.031754047254032865,0.0397804472805178,0.0410649808967149,-0.04996549443004557,-0.06089989399972308,-0.03196959949683344,0.03947429091695333
C1QTNF5,,,,,-0.01878231020967753,0.02143567900819715,0.0809504074250011
RLN1,-0.011724781985055577,0.0021679072321696196,,,-0.03297559558141039,0.040825456463603735,
COL4A1,0.05321850544794614,0.012066855570876342,0.013394243379078593,-0.034259287787207764,0.03499660206436525,-0.0011027259665268689,0.0289360610693484
CCL3,0.0053132433926545404,0.04063118154872398,0.06002284860330765,0.018144541582297693,-0.00917009251847243,-0.004374094689517451,0.05337071088303315
BGN,0.02555421293742108,0.020300169110447002,0.05513808521939203,0.008868095268175415,-0.015599712505567057,-0.01219411549854315,0.03630390713110033
RETN,0.13501074903733182,,,0.002128943207851851,-0.008267316315334127,-0.025706897634155613,-0.004279809085239461
S100A9,0.00025502769188415545,0.017542861774605005,0.0031914071820315104,0.07417842774525317,0.04755539243394097,0.044833075754542526,0.05250038236395576
HCRT,,-0.009979973960897537,0.030668417782394358,0.05639558175326629,0.1029293599284025,0.016944832464484125,-0.017714339533223645
FADD,0.06432344651142244,0.018425440596831218,0.004331755601586193,-0.014952885150754082,0.07723376463954118,0.00637432807530867,0.026503240243450896
ACTR2,-0.05378662834573975,-0.01688554473614493,-0.029373240936796424,0.003782612174717922,-0.0441333437051251,-0.01296976476702609,-0.01800266369392979
BMP2,0.0026168701114087332,0.006973488511072398,0.015521351781506019,-0.05377601605437185,-0.09626667745543677,-0.009318430357402162,-0.03794120074527588
PDYN,-0.0576967236772105,0.012568675325224475,0.030721721408472874,,,,-0.02333382155793054
CD55,0.05000107838352779,0.03255114331373016,0.011413385402902574,-0.04260854482796492,-0.029375916049357527,0.05320171400407747,0.028320000040514385
OSTN,,-0.020526192932130913,,,,,0.028187997526232852
CD6,-0.023141769165864672,0.0321458046312785,-0.01766173951269159,0.16677265106816763,-0.03399633230967021,0.047501724571849466,0.16094698521020123
IL16,0.07966505028143571,0.015778934674947207,0.03625789767509645,0.05445364322140864,-0.10181349221769617,0.06655233733717042,0.04312642096802683
LAMA5,-0.016183101826166245,0.0038067490103752912,-0.04631225172492511,-0.022234836718007932,-0.02328519717291401,0.008713220225104096,0.025505837499429158
RGMB,-0.014121319034666485,-0.0015116444050616048,0.014271051178454633,0.008363731714073999,0.005509269357007247,0.023014914221694542,0.03955891293204192
INSL5,,-0.012302761042872918,,-0.006644848857463543,,-0.025844329610033755,
IL12A,0.04380348032334885,0.07248870493985539,0.061252320009959095,-0.022708295119051078,0.020210177552783506,0.06235043561534353,0.1003203026870108
S100A8,0.0052326342535646735,-0.0038911862412047533,-0.027314913530914555,0.045821154380499045,0.06472582960924904,-0.026357114102072074,0.004425407501311992
TAC3,-0.03367839653888248,0.04893479217853488,0.04361418533506716,,,-0.030801048429544432,-0.04395950726856085
TAC4,-0.006285446984339323,-0.026583407935176454,,,,,
MFAP5,-0.012384878576764525,,,-0.028967521704186525,,0.0663128716307016,-0.02417918189779629
CXCL16,-0.06828837655819342,-0.02121269476673864,0.0217135909420227,0.03320306507163757,0.027093797994054886,0.021677121269116903,0.013492485319823248
AGRN,0.0803298333049711,-0.006366942040064063,0.007986553604892569,-0.03047654441813088,-0.03740426002721135,0.015094764057238528,0.07751468286651149
COL4A6,0.0057040879216975,0.09311606609164913,-0.01444944210224218,-0.05278566024527943,0.1670505869327585,0.008885645449890678,0.058084466821642276
FST,0.006872331241390215,-0.039609760546495405,,0.02750390955337488,0.014007987303028657,0.05599904452757579,-0.02779224753140548
MEGF10,-0.017728951032710178,0.05842073782513277,0.02492254359811678,0.057111959530813265,-0.007594221968029482,0.06574363094757658,-0.02724980521261878
C1QB,0.03117537880201013,0.01614574428832344,-0.026067215756970963,0.03518521605934796,0.02912633444017814,0.08653171100807702,0.08129923196260366
HLA-B,-0.022536745950642572,-0.0027660917081078987,-0.01449000408906508,0.0554394648945591,0.08605397636504562,0.04067242292541043,0.03505710619037776
PDGFA,-0.001136266980008595,-0.008127568086332436,0.025692615374425642,-0.02266329709053588,-0.0777348099190002,-0.03148794962289948,-0.02992650929035507
LAMA3,-0.020948217900814955,0.026395216158757374,-0.0242468947885845,,,-0.0283481762997397,0.021300494361094716
DKK1,0.05786280031270695,-0.03784082624563234,,0.04509683929995622,0.026074543618739326,0.009353442230778171,0.03517469436809739
INHBA,-0.01678018496144956,-0.010562884817631254,0.056752045439823796,0.09273182314937645,-0.004629028481211289,0.03285515102793636,0.07479176694520148
LEP,,,,,,-0.015026693150458853,
IL7,-0.017021143843933075,-0.023628592023908244,-0.017136235686985135,0.09278601318588352,,0.007176264855219041,0.09388478084728132
FABP5,0.0682363254860851,-0.012578266381037937,-0.061347038626123354,0.14714274402625818,-0.11402853905988097,0.00964409525858833,0.06381947301722364
CCL4,-0.001913461538075171,0.05387654663484018,0.04540933499348182,-0.014574587107030568,-0.013474543780896355,0.03070456907870879,0.026647021370996622
FBN1,-0.008791116996035448,0.019048581160051196,0.046322256439466886,0.0016245563633988634,0.051932027731659836,0.019788980738182846,0.01607557551956799
TCTN1,-0.05757362459910326,0.0009027046226085116,0.020925629404834004,0.05166366543284231,-0.014237067067763056,0.0017645749793300891,-0.00879529638541397
NCR3LG1,,,,,,,0.10892551806382796
BMP7,0.022210058205290793,0.04822014073373009,0.012959699959144123,-0.11617599304659323,-0.033057189035447576,0.023330267680512995,-0.009430773289601457
NLGN2,0.019705664000397697,0.027165359031429078,0.0021015724577221995,0.09810224962022802,0.02986937264980394,0.03847192712041166,-0.04374488908251336
CCL25,0.07778013683316537,-0.02464917547892939,0.00891763306270573,-0.030537174313843465,0.18389941014656133,-0.02326534006898279,-0.023542343336203128
NPNT,0.009664949670694973,0.03185364904098919,-0.01278513743100488,0.06009646240878554,-0.11246814195118733,0.011351732744808045,-0.004407474157477946
KITLG,0.06421060716615035,0.019230135667559423,-0.03635692392996892,-0.0008721671219271653,-0.01264307052064024,-0.009853842843208775,0.01932138407542303
MADCAM1,-0.0277215109830449,0.030591557326876604,-0.024559523525797593,-0.03452735368734039,-0.050842574179889605,0.09797660182962793,-0.037272370843829866
F12,0.007743445554205351,-0.0028383860999978833,0.055284106494909745,0.046436860634635195,0.02664523357423337,0.09650561496574551,-0.016287809666093733
S100B,0.055829597394223336,-0.008429272530377674,0.024745618542959463,-0.006452299379911327,-0.08034881439847025,0.044417767646229345,-0.001227199166411548
IL27,-0.01751276220690759,,,0.2723272793451312,-0.0324548004890418,-0.026789547266760673,-0.01956503041431348
CD99,0.04853762210038507,-0.0011181742062181651,-0.05071451613954419,0.1078397152915363,-0.0008237700755586145,0.023459931196183365,0.03106322059093623
PDGFB,0.07066872518352614,0.02679369234160099,-0.000878621363483468,0.026417471879839248,-0.04952391319541457,-0.00896320414112508,0.014895974976657032
CLEC2D,0.02171797246530925,0.0068945198008097276,-0.01389755723713696,-0.0010386135912522569,-0.019234101699924417,0.0658279226911288,0.04482201313547028
F8,0.015761175541805488,0.06400101094164559,-0.010837328575917808,-0.05847274458243973,-0.02552612293168764,0.09662064933983229,0.02043579831983607
C3,0.048862088872579236,-0.032659021891712735,0.012101677943901403,-0.026103684906812027,-0.000136617863184276,0.028375322591505357,-0.013061954396734042
DLK2,-0.029411521397973553,0.00020044078770227306,0.06526313517857991,-0.026018173701308784,-0.017267196134334455,-0.01672820508049634,0.02856989268745958
TSLP,-0.03563079030944781,-0.007465688632268081,-0.019943713780314364,-0.03751815042920142,-0.001110030122163986,-0.03243288739025018,-0.0012150872268359254
OSM,-0.04189230434534083,-0.015275633158733452,0.02796078652305644,0.08655589659820782,0.0664276871153744,0.04843762189575714,0.10714179017095976
PRND,-0.012858813104401082,-0.02145501786178655,,,,0.002282697842951721,
SLPI,-0.028986637230520276,0.01655397002179693,-0.003794056338677811,0.07385666791977694,-0.03666690672330988,0.05504892743317192,0.008388365850222257
AFDN,0.04881355208846338,0.023905252443015362,-0.041961775104697466,0.022871408502095788,-0.05357998225814437,-0.021342239182697825,0.019389124580419782
KISS1,,,-0.01695767961779505,,0.02588065013282764,,
ULBP2,0.03467291268118532,0.1013693449187851,-0.027715914283365187,-0.027729097243442427,0.027163694047483266,-0.06236605744989581,0.04644305019586997
ICAM4,0.01803021066015945,,,,,0.005035367942286877,0.13887293149371252
ANGPTL1,-0.005562024529947769,0.031788553633639145,0.040935704603386386,-0.029366946912043838,,-0.026522378325980187,0.0008255596079432838
LTBP1,-0.04224371828281882,-0.009811619645337735,0.015972920761997963,-0.02430974611323948,-0.06767169409188836,0.06703360756878378,-0.04908834142413953
NTN4,0.06511884133376748,0.029448829522700375,0.030241410154825333,0.03982974698887621,-0.06652189285824031,-0.035571411425649464,0.017262801325293724
APP,-0.041956315563934185,0.02358375139029164,0.005121682376914581,-0.016479707107891532,-0.029272123519917054,0.020712175462796217,-0.03864422522465533
RIMS2,-0.014800903190173338,-0.02420248384516873,0.00831064220325808,-0.04122200154514836,-0.04181539055919749,-0.01846712919003735,-0.06985495324238657
WNT7A,-0.009719368744892806,0.04328602529587081,-0.013485507667893127,0.005299853271639856,0.07733737731340115,0.04399697594100133,-0.0012180388642985401
GAST,,,,,,-0.0205749364826195,0.0036825875149542014
GPI,-0.04949757552768094,-0.010209293230507645,-0.009422755086302187,-0.04282927994602805,0.05658806990634089,0.008570134565207502,-0.010513586219653542
IL1B,-0.011774077975836066,0.06280986006548453,0.01294266731048793,0.006991678510330637,0.030151775846511613,0.016836508462673153,0.0545215890287035
SFTPA2,,,-0.0135897710804398,,,,-0.01851644626564949
HAS2,0.027901663858991014,-0.01837759625964471,0.031092347962665,0.06831107708691271,0.062116812706496674,0.015974653744055874,0.007116977561772993
IL11,-0.01751276670971705,0.03855924464163109,-0.01526282463934936,0.045301565817738046,-0.047848086715548466,-0.039208826931045014,0.004048372165655504
SEMA4B,-0.037199575299029536,-0.009844909207116368,-0.007705809490879174,0.036041594115428253,0.06399876981353733,0.002382100929767635,-0.008645457205705526
FGF12,0.0021312224937849243,0.008915819501267191,0.04159329395147466,-0.05444051716820039,0.004296646869794282,0.013682132676738745,-0.023312331511269914
CP,-0.01854573612906643,0.016614738496022304,-0.02933351170435492,0.008433777824873428,0.04967599068899509,-0.03751415733947532,0.022002032301290927
NLGN3,0.03508387808408628,0.02567209240828322,0.019611554108509063,0.048376138597043754,0.008654755468584234,0.06359660494815945,0.0011837189592966244
GZMB,-0.02404272092300607,,,,,0.016968472973559072,0.03172614606859005
PROC,-0.009749641050613002,0.037609501384605525,0.013613545704561896,-0.019422383911918556,-0.06280872362946334,0.031346243993084597,-0.02793505237026622
TNFSF11,0.10079165769275707,,,-0.03203832685931081,,0.03076690670463123,-0.019307843179298192
AGT,0.06913725098613469,0.020865319761697806,-0.0029162316350267326,0.11434582181772572,-0.026315166489156584,0.061041513390949084,-0.01869396207190449
PTHLH,0.026535280410080436,0.011180303411988602,0.07142366810585625,0.14228825012367374,-0.1014974666038741,0.0729051017271112,0.04986508437817394
COL1A1,0.025026751179960494,0.03359063412351993,0.014949581801807499,-0.0794550546926132,0.005037507000546631,-0.02206709013847903,0.047682270525430774
LAMB2,0.02115427316198852,0.020958169577076743,-0.050409812036337966,0.016643820977559932,-0.014874692053072182,0.04204773729144049,0.029783244060060013
DSC2,0.06413322544375878,-0.02407380884588512,-0.009659535866619521,0.05966601780643444,-0.07921800654585404,0.07198448071400572,-0.03623597690434467
WNT5B,-0.024916784976272935,0.011115745887007202,0.029281779412713586,-0.03940569650928687,-0.053363516407773405,-0.03162355704429823,0.00015094596610677245
LEFTY1,0.15870649960178893,0.009034024223680086,-0.003725624841490531,-0.03015159939966557,-0.0046194749363363255,0.05579125234672027,-0.029568152766119692
FGL1,0.007495218524792087,-0.02713946141072191,0.07219763898520765,,,,0.05938974855555997
CXCL5,0.1087399716762811,0.03422152277234842,,0.02679719478231562,0.13618146894565858,0.014109768125863653,0.027341198119825938
S100A1,-0.03332528648556418,-0.007216275508272021,0.02964563573919342,-0.030562164240449913,-0.039451238292481705,0.009926338599426763,-0.04220133595268351
C4BPA,,,,-0.0001188773914768358,,-0.015026689467904348,
NPTX1,-0.033950064776617064,0.03526576129589641,-0.009316169054275236,-0.04388896763441911,-0.013451107016412753,,-0.03589875007993397
TGS1,0.008610888826788631,0.03429274146314614,-0.01520109838083772,-5.7235280376601476e-05,-0.03051460172989797,0.04229009799793685,0.012920257329347975
SST,0.10114795137578567,0.019300789436337947,-0.006234865375218786,,,,-0.04577419918966761
IL34,0.01746015230043744,0.09751892087463596,0.07114940716162066,-0.030233274804645355,-0.06595840405788006,0.021475521669991244,-0.04306144772622271
DHH,,,,-0.029366961093838434,,-0.022192662905096805,
XCL2,-0.013316776290072399,,,,,-0.0156851042316773,-0.021984096569724613
RSPO1,,,-0.01444944210224218,,,,
TF,-0.027594030985211262,-0.03614191862625687,0.015596190348973617,-0.05000888809786018,-0.02021995506459692,0.08568849192235044,-0.06732263474096521
IL33,0.004149387986849641,-0.044559562607065735,0.05385503232242129,-0.02549446101304398,0.027453573826170075,-0.018420773522544998,-0.03557729574201883
RBP4,0.03012044973528276,-0.007487078893250866,-0.023866400118746273,0.08438668697409067,0.0663302950754411,-0.02770758618978755,-0.05348492499884675
CCL19,,,,,,0.03316819115296809,-0.028304834475826223
CCL20,-0.030174540470329605,-0.019556292609530443,0.009803877366825529,,-0.050842485874528894,-0.02421853555015251,0.06430852915614801
NAMPT,-0.04547886987830646,0.012348332740962725,0.0084651638413125,0.023954455971978032,-0.05660976205360809,0.0040465965019663465,0.022754119651516126
