,MGH258,UKF243,UKF248,UKF251,UKF255,UKF259,UKF260,UKF266,UKF269,UKF275,UKF296,UKF304,UKF313,UKF334,ZH1007inf,ZH1007nec,ZH1019T1,ZH1019inf,ZH8811Abulk,ZH8811Bbulk,ZH8812bulk,ZH881T1,ZH881inf,ZH916T1,ZH916bulk,ZH916inf
IGFL3,,,,,,,,,0.018302494746049957,,,,,,,,,,,,-0.06538599703466529,,,0.007737481383201797,,
BMP1,0.04808857400622732,-0.04171429828139258,0.04768373893156303,0.0023404339615190678,0.03995964167132415,0.006803255076234813,0.04636682104528345,0.16757259194094173,0.3163107651765569,-0.03292317695408126,-0.04535466769095361,0.06317116954011115,0.10392338889464395,0.10284932089996406,0.04613760788607126,0.04423534618228217,0.09812861331274174,0.13506806082323,0.06637659009684699,0.11998951384079921,0.056686092482140696,0.04907267922340481,0.006439365381356057,0.03775749182192399,0.08156754035648481,0.12252612817142412
NDP,0.03887536446482591,0.03694298721438107,0.011339393694222273,0.05130519030840892,0.04450431058496427,0.004449185599445678,0.009678136539575942,0.0070099484343818805,0.07788178540047885,0.07419981209716628,0.045315889607805866,0.012406938952959176,0.02068456774616157,0.04188108055173949,0.022506439408292247,0.04637175445790154,-0.0658541822247589,0.12212170205294813,0.047756379338957274,0.13767911454403545,0.02565828724225057,-0.057592182689818104,0.14940701950799262,0.04720010158698842,0.04094850306520602,0.06487079120855965
TNFSF18,0.013411133215807747,-0.01078946324471645,0.054561168587913246,0.044314723134111576,,,,0.011930137870063163,0.08135984252553799,0.01738219511567864,,,,,0.10121080312752954,,0.04020589093025794,,,,-0.041576180651078744,,0.05776164287531192,-0.01577677893292825,0.02654620158063221,
IL36G,,,,,,,,,,,,,,0.013334338760077339,,,,,,,,,,,,
RTN4,-0.06829797150242828,-0.04521108199917062,-0.015237308688287016,0.04354906174709527,0.011261602900812915,-0.0532452858086828,-0.042595523219625744,-0.166237496933619,-0.35606304871986766,0.02497580782507439,-0.04122335413216479,-0.02168508726301197,-0.08810639349255785,-0.10066322751021298,-0.1855288011701324,0.01188632742584844,-0.09022798269169303,-0.066925183569485,-0.03541290770920197,-0.05601659677956425,0.016619254768180432,0.08280412863033121,-0.13443344023931678,0.0009079734216177846,-0.15987934349287566,0.08309217974446985
HEBP1,-0.02377752832234826,0.17742403246279062,0.024457094144955182,-0.011486047185573996,-0.03447962002138079,0.02203574610258342,0.00729750287407634,0.10623471315737427,0.10926572130293848,0.02618558605036554,0.021365959723822058,0.07764911159633725,0.01839387347310059,0.10229373723297676,0.02527478425983709,0.10478627673230521,-0.01809539174253711,-0.030258603817742646,0.0652975500702318,0.09654543425151663,-0.03544774638684703,0.046689437344017155,0.047283176875111965,0.13119846023268134,0.026263459308623123,0.07256461965144302
WNT7B,0.02054255256337117,-0.07564522433856702,-0.02855960986842518,0.03072040494646463,0.05396652517935476,-0.006697001832646089,-0.06623251142578589,0.014731236211884366,-0.1804869178409202,-0.012056892620181453,-0.004379255245431651,,0.14602908577452098,-0.10658363488152829,0.02023013011316385,-0.002325155545966141,,-0.06009435748309509,0.006039798102524517,0.03465760016079412,-0.026225463972479192,0.006193821341419022,-0.056178735911469845,0.08988025109979852,0.03958090307503865,-0.0048492837625929985
PTMA,0.00696969949787384,0.028971832768878363,-0.015833881465311152,0.007443585285951057,0.01277071683918626,0.020220372922707786,-0.002316359578138793,0.2604183947604649,-0.15483071806255252,-0.02341018661700674,0.0469899615111631,0.07577482461287074,0.17704179686625263,0.1294657658425788,-0.04524297298660358,0.004613977041344631,-0.001062230498660866,-0.1642840482934061,-0.0756742590984346,-0.04453385707527589,0.036903090977278244,0.06310332423766304,0.042560450896313225,-0.00907297547333253,0.06297543112448849,0.04777442474761946
FASLG,-0.055713574778430745,,,,,,,,,,,,,,,,,,,,,,,-0.021587066986486877,,
CEACAM1,-0.013578869455277628,,0.009560174223966558,0.022747034431545205,,0.010357092214279736,0.043267528800257804,,0.06295975303792334,0.02081425731840063,,,,,,-0.06196837664055752,0.09249316923537919,0.015523576041799513,0.01571654714557398,0.04585589768176556,0.054866661616165255,-0.018482871849209537,,0.029626778215868167,,
PDAP1,0.09478060911857483,-0.01561802911710396,0.03254989634653723,-0.025077914822478495,0.026238832131948917,-0.011254161619593302,0.0366619838468988,0.10509307959983337,0.2685779176345437,-0.006413159380967029,0.017221801227437085,0.042990543340053464,0.09021414009314788,0.12517012030816094,0.055855301771274846,0.015738072159882564,0.07131705845329789,0.05343120154543976,0.07388980445647089,-0.026914411905590248,-0.030920068036084984,0.00044829040073067255,0.09583354266856793,0.08547925894838639,0.09107279807307651,0.04552104469589101
QDPR,-0.09049233595899611,-0.050712660993572696,0.04280886269086441,-0.025643474942099922,0.05164433117027562,0.010710218684303727,-0.02104972274647382,-0.06522932542061605,-0.18508951131586715,0.024210231147155974,-0.005527484481542723,0.016375171968664764,0.10060317061671432,0.0430568688817813,4.171063121735631e-05,0.023736642124518,0.056809974390541355,-0.19489485145619728,0.04437172101953688,-0.009556374873166715,0.03532349097165969,-0.025879415114568583,0.061189175673101864,0.07319122020255091,-0.13151925646772944,0.1273718149266467
POMC,0.0191179639587505,-0.08909003368695567,0.028693937611472282,-0.010131923711911529,,-0.010776423689351498,-0.022115743677089378,0.058280851601164974,0.020752677417538414,0.0047245433121941936,-0.024593009194999033,0.07240676163939314,0.006915888468289191,-0.022155821768677395,0.006590083119056138,-0.03827909361206416,0.08981968614488359,0.09104365343538585,0.0013056499850424618,0.038476528288892156,0.020105859688244312,-0.004127090930026327,,0.08110209279270574,0.0836779218462374,0.014436809199296956
CCL18,,0.07174394863778277,-0.023438588490868238,,,,,,,,,0.04840534576446529,0.11649969227792996,,,0.013055850257487627,,-0.10197179289309635,0.03566801065661901,0.06464374295474216,,-0.09331310894389648,,,,
CCL17,,,,,,-0.020684393063167286,,,,-0.011265710248864228,0.014717259828473103,,,-0.004460769379324373,,,,,0.09114461357766532,0.021559828335497282,0.04337131981534298,,,-0.007017583493420525,,
VEGFD,,0.054810939745225794,-0.011763143134630932,-0.02676156386019432,,0.018446576617953486,-0.019629816604298377,,0.06318546638903887,-0.005745574949620659,-0.0038857543982059387,-0.028714688156153974,0.02630294516471901,0.03573913515307268,,0.07611624737841644,0.10127821168046905,,,0.02198561580581817,0.014482164540757906,,,,,
TNFSF13,,,-0.027791173198698713,,,-0.026964659385837378,,-0.00019328819698583081,,,,,,,,,,,0.01696464619321565,0.0465601320768786,0.001498937393127332,0.0022750187456103505,,0.046806136261262,0.04166097558958993,
WNT5A,0.018349368388738248,0.08505517890418107,-0.009896752955785341,0.005345995315445958,0.02730981428617417,0.002014263060137813,0.028351242374748252,0.15961560507073314,0.26367585231160845,0.012768750863582565,0.013831094060273899,0.02011547082428693,0.01293396318966025,0.05725658993144151,0.03228999592574407,-0.057138009385349894,0.07541011036614252,0.06301066686330763,0.011151518208736232,0.1031026234128833,0.0475630986959025,0.06054703857933401,0.11672298937495568,0.1316128480576804,0.09721158562249535,-0.013447068914198017
CXCL8,,0.09159189512544048,-0.08944635961812243,-0.0507364245769265,-0.048688609864554415,0.02111036647261736,-0.009486973243931192,0.019343790194631234,0.12836418688734988,-0.02865365260409844,0.021351352002976682,0.0692949982023767,0.029203689568775976,0.004570256705000244,,-0.04671946266680928,0.039847672650181416,0.03568947161367626,0.06493914928322077,-0.02559978410747236,-0.024782050602480565,-0.023415695874269227,-0.02605977332165204,0.01905625582360771,0.07707026976535886,0.0339177600853497
GRN,-0.10116868944370488,0.04857608910537912,0.09768483600148577,0.01078646521158421,0.08431427402239448,-0.006305471985380777,0.018976062756955542,0.17975103144043847,0.20666290662816958,0.0404939456154484,0.016128354783268087,0.07268795732992236,-0.0004083013351614773,-0.014137948018594774,0.09840370984917808,-0.0028494148845437067,0.032011788955370594,0.09024207227612287,0.07866326077491417,-0.003272186799000341,-0.01775286722031113,-0.04170196738173769,0.07067952773408523,0.009294724580719086,-0.008457317536765084,-0.030632363019005373
MIA,-0.0027301313030934755,0.11580245790304979,-0.023966565774728207,-0.038130773897157355,0.0062092651047583455,0.08231552550091194,0.0338406363806066,0.025141641797578662,0.09981535138764641,-0.03162405592946781,0.02246398083239445,,-0.00826789455177405,0.0058781200386291265,0.06660597172702129,0.013497644796431058,0.06105052573379893,0.08916521316814069,0.011558077544632997,0.0680709043249833,0.07601756922813234,-0.025771113181943927,,0.06270163812469308,0.09502717405175039,
COL4A4,-0.05731607754611076,0.03825960930072313,0.057929118343239494,-0.056663286072923175,0.0023436596669016534,-0.01871133740623512,0.009149747977329682,0.018549310551697708,-0.019569817260770006,-0.010639472799746157,0.045690514784771166,,,-0.005352419626577504,,,-0.0012985065844405065,-0.006873107487930859,0.029867664880046975,0.007531832236091458,0.02320485827240775,-0.0022333951050193947,,-0.004882103150638608,0.0933897319736935,
TAC1,0.03927203238022589,0.015934101640826214,-0.03156497581884179,0.03518754020870075,-0.035897187420307224,0.012929328706172508,-0.022001191010285404,-0.11402958595913931,-0.2843099527777277,0.008660413144792132,-0.015044387154855426,-0.041192458824969996,,-0.12426774714538957,,,,,,,,-0.046275439077208304,0.014765289654481172,0.09578296751479784,-0.006281715453333919,0.1682946564302855
RARRES2,0.12962200017196074,-0.04586290973825385,0.05961164004483587,-0.002332387112641073,0.07075134048171458,0.0205205129857624,0.12348933541689829,0.10823007804387702,0.29439149499661305,0.15338530139492695,0.024829604732292166,0.07087593185266797,-0.07085324262879389,0.08692097128052369,0.07140018186452458,0.0702579411483148,-0.0037398488020534,0.12728406965326722,0.1149685006584118,0.09138260097104091,-0.0007881789089929669,0.02480846534032519,0.01592275818304643,0.11271358653880106,0.1094320098450687,-0.04307928506703659
FGF7,0.0538146534117051,0.019257492614545582,,0.050749409771184834,0.0450648473854916,0.04371655281898628,-0.0005823475936369147,0.0444014823795222,0.10408477510078092,0.018917014589996853,-0.0073891152221459465,0.003959574465179557,0.054141418051730957,0.030149801586834807,0.05617057443344153,0.001631417171244056,0.04585366169102594,0.0733042227245219,-0.020004090302562973,-0.005802852571649856,-0.0011783709184628038,0.04637788864969309,-0.04122917350159812,0.08446873379007773,0.011410372898653752,0.09724131529010897
EFNA2,,,,,,,,,,,,,,,,,,,,-0.0540434068886728,,,,,,
HBEGF,0.006087539860035712,0.028384804565794248,0.08057923599391446,0.055239740251117476,-0.053635841361468116,0.01047812743704815,0.06953379085340478,0.12594415969201778,0.2159461632137894,-0.0012716255324327016,-0.05052005481688083,0.05238256853739711,0.1383432219455032,0.035185351954190695,0.07716841613309636,0.03763514010997308,0.02242229282924803,0.1589149268989745,0.08881044372726943,0.1421091854634875,0.05728793992223435,-0.019734320191786822,-0.040774437809631005,0.003538401919595747,0.15315840931695893,0.11417639191461001
CSF3,,0.1051746632905682,,,-0.029922411544686903,0.05276127478528634,0.08954911853273523,,0.019046165315824457,,,,0.011849757777673742,,,,,,0.10735279046891377,0.09933052802486361,,-0.07262317092565639,-0.08731611011538343,0.026342016464993276,0.05044336478651233,
PI3,,0.02021591020553055,-0.01601090054689767,,-0.03397816530864442,-0.02938207190912174,0.010125534666408592,,0.08959995417738656,,,,,,,0.037938196086005176,,,0.10436739151591108,0.04538192142256366,0.0010496532990322165,-0.025517777031384293,,-0.0031627637025153396,0.07172091770541253,
PCSK1N,0.13704704679806853,-0.07017845819871776,0.08860740854553262,0.0015163641894104898,0.02589394691694904,-0.017647531489562742,0.03708733806294986,-0.06477658876050203,-0.14326826012772595,-0.030403271482022827,-0.04799232731044727,-0.08617489985729186,0.07926799001565282,-0.08290490453955802,0.04976763705851861,-0.046752444108937426,0.02280832572364131,0.1283616684621004,-0.14897867891461708,-0.1270488646470644,0.07213418930684257,-0.04080212437161341,-0.10376433099923611,0.03500498058422825,-0.14653187454030067,-0.030292151424678435
NTS,,,,,,,0.010537167632016576,0.01371596821789488,0.04987750944127972,0.050528175755039276,-0.033882436857039074,0.040478433615756544,,,,,,,-0.09527485020838504,0.01672030995014775,,0.021745682271528927,,0.03577502225783557,,
SFRP1,-0.04554943289484316,0.029048839344299943,0.010624426461540559,0.026368173960901374,,-0.01387153770909634,-0.013604087104769073,0.039963780286651936,0.007357318650335189,0.014137703621185289,0.06319410046236493,0.08519073893646416,0.08858507037698764,-0.018064304342876578,-0.04673971734210382,-0.08144947667065564,-0.014072912763586564,0.03909509750155813,0.06754787132915217,0.010779200591638909,0.049863327494009416,0.07179165168210344,0.060717328271885224,-0.018583271909106705,0.05118957785493182,-0.058993665602437385
CXCL13,,,,0.05788395425046601,0.0709308360726736,,-0.03441573939483504,,,,,,0.06284219823793148,,,,,,0.06315840109507019,0.08631760579111758,,0.0514448274734995,,,0.12578853515992788,
MICA,0.02148373681764307,0.01980474303512229,0.02961391519556488,0.01793757800735092,0.0010171076823052118,0.021736119169335995,0.04527527520429572,0.021561094931028507,0.09588800004568654,0.03784359412686844,0.03662682959348438,-0.0009096494342431675,0.04001550398435658,0.07720924358846258,0.09167717049996628,-0.009070945184481692,0.042763548831294525,0.07592651781482349,0.09423006967157706,0.08201532982283345,0.031471096386447774,0.04605653005418301,-0.0008293357658868402,0.16189671157513055,0.15680053337488992,0.09040348393978706
TG,-0.008811473323441442,0.042171498752251756,-0.001205123985796687,0.05605124710959725,,0.006568605018532809,0.005283925082201671,0.07386654535366731,0.035955906209033155,-0.032785090021097446,-0.00129707626998832,,0.0781219543139782,-0.011342405343014695,0.01615841755130439,-0.04721272924903305,0.06448203530442609,0.0562373357747809,-0.0416531440782984,0.040587213791517855,,-0.021510165330816577,,0.018955108690697622,0.017944881576720608,
ADA,0.01184440851438391,0.0342088843636267,0.002281212730955166,0.05595443250307508,0.09304116808816681,0.03742446046926804,-0.013768339260007983,0.0757741997863137,0.18833969271880993,-0.03813098969753803,-0.014681509418853598,0.015115902810326808,0.06250617626110624,0.08000928937931702,0.07379323880397175,0.017255755362407494,-0.004454575282449653,0.16330291416449463,0.06737338231796411,0.10747247757367755,0.09891269173609231,0.006983068477037945,0.026277997104251365,0.10427300790230071,0.014168694898517261,0.07298847286938465
LAMC3,0.1283948260070702,-0.06005863935139321,0.11024804868210787,-0.015091930382903422,0.0498342186068889,-0.05008547811491605,-0.05702760470870451,0.12227515013052746,0.17986684519389917,0.005888577989328535,0.04358903095274989,0.08130589029150076,0.10203603998202393,0.045364741347752625,0.028657959279845484,0.014183640909203751,0.0024326803965057145,0.1284843878190631,0.019027958780947575,0.14332259391739555,0.010029787256726303,0.06166949213200386,-0.011070049188285183,-0.021537393240590605,0.022618078570033985,-0.007408343535571857
CCL7,,,-0.03173775190726263,,,-0.03274557532586067,-0.014523843691477195,,,,,,,,,,,,0.035909943770187164,,,,,-0.05960744163121386,0.07467672234593517,
NGF,,0.04599198567042663,-0.010174352948040042,,,-0.01677214158764526,-0.006592529204378288,-0.03774451757280162,,,,0.04156100383115158,0.058449676392912917,,,,0.03236791541301906,0.02226828485857791,0.04553428657758852,0.02812037521509334,,-0.005493258919441795,,0.06418604491585486,0.022828019105306113,
TNFSF15,,-0.03481746623541249,,,,0.016701414469557866,-0.0004999516589360728,0.05905894607445941,,,,,-0.009258897129743347,,0.0010810825205786986,,0.09841987984331324,0.0462763173664543,0.02248731665945712,,,0.014578427361618566,,0.05762545118234731,0.007789052616054,
HMGB1,0.008680613280227047,-0.014262760294849635,0.018173627364291105,0.00755268439069044,0.06732647965901946,-0.08446860938870579,-0.022696961429246498,0.12085736722655412,0.20829925518147985,0.04266956684595576,0.04554062011262052,-0.032544658460481345,0.08522512409100358,0.11197778892854765,0.019196015654926908,-0.07054556210127377,-0.053083016707881174,-0.07317317087138515,0.023278815808225193,-0.07574871420113682,0.018699322493645858,0.012274615144413529,-0.022177043933976976,-0.07652771028629167,0.008521347815335931,0.05571452531139274
ITGB3BP,-0.07525661986605911,0.05712928604407162,-9.47621548098874e-05,-0.031791762540468976,0.0564672919333577,-0.03132957425805108,0.04430068313859842,0.1750333042590729,0.20704010690879868,0.02062562172058205,3.448962083670427e-05,0.0012201686718228933,0.12809699138212263,0.07503170756449945,0.12356209081280788,-0.009868907658593112,-0.028253655536475922,0.07175975759184622,0.007332395264378013,0.028691287119993865,0.017364974275277157,0.00837427662837258,0.032400179800274855,0.11518097231566066,0.03901355789619282,0.10549515322241672
AANAT,,-0.0028832704052557936,-0.01187578998426359,,,0.018547271696899105,-0.0039016488497379937,,0.020965772430631427,0.02726446878036908,0.020896797721605707,0.005678742070685319,,-0.034907636049768605,,0.03611369359135963,,0.04329079202163173,-0.027038737928058627,0.06096243242598266,0.049041112594447434,,,0.030760076087520297,0.09727505150908666,
RELN,-0.01014051658461739,-0.011907652843997312,-0.0022131673158814476,-0.047616423956378565,0.004103672725825382,0.012677572535999906,0.025323047191966448,-0.033213480206837835,-0.13395344201952944,-0.01649120136034198,-0.015953026183590464,0.0038294175504970003,,-0.09093515964672767,,,0.00499902734948816,,,,-0.026758910271576297,-0.0033726644493215514,0.06615699528235802,,0.013729531049828448,0.08084677724205129
IL15,0.1066935345928425,0.05152307685386309,0.002598926461384731,0.05911565677289089,,-0.011626940300240128,0.053955910596104044,-0.03425963639135598,0.11644981428956681,0.028793738390626596,-0.02753165551087829,0.016972317884668013,0.08316798901021029,0.05672142826588073,-0.03830476936500728,0.028162654748494956,0.02011840250684982,0.08870803087884108,0.032046020668581476,0.057303484703687825,0.10727098657970217,-0.002487014793686173,-0.07668540251087948,0.050938088088266796,0.08666119784162604,
UTS2,,,,,,,,,0.13058251835971837,,,,,,0.02468732716509519,0.02806079137497615,,,0.04423725423249298,,,,,,,
BSG,0.051726042439878155,0.06229349017409558,0.021062561280026624,-0.04474336297881421,-0.024688768839464477,0.021324081234333065,0.03409151958433394,0.044517739513760736,-0.02256516785232512,-0.09082223027970873,0.024835585068419746,-0.0049968496626255875,-0.04374177935535669,0.04649758042538347,0.11995384484312901,0.02963158443052704,-0.03839106660573638,0.16752693075301978,0.12117514849906885,0.1030349686029996,0.054772065937447614,0.011078093569864415,0.1247135995567883,0.07743528324832993,0.11355249751769517,0.06292711908640132
ADAMTS3,0.10239957192549831,0.05465810467641452,0.04404291015312384,-0.024002234106692086,,0.03624214337691697,0.017076669511578872,0.015149475732509474,0.29419378945101854,0.014611673994722178,0.009963904547693492,0.008288962941143601,0.057671612165493505,-0.03101969058950754,0.08266107134045482,-0.04869457014204319,,-0.030553290657259435,-0.019395204670253675,0.1027478873910731,0.05078602110730578,0.05184847808211336,-0.009687695452179484,0.12880980957719815,0.08721846290991277,
CD34,0.08579600000127069,-0.02059490771727249,0.044962005447996625,0.0639830286709,-0.048918394459357806,-0.044858330972644425,-0.028850148362405473,0.08913629407265433,0.1493929279946606,0.028405373264461665,0.01580393037808336,0.015444330543894446,0.07446557312987315,-0.02715550318064824,-0.03271630065624462,0.057370096660161546,-0.04138872858556583,0.13797127799813305,0.04724458473095176,0.1296259147067231,-0.022128602432256807,0.04964853948656658,0.06832373304461586,0.0291231060740733,0.07038361283559577,0.10969459678981172
CCL23,,,,,,,,,0.04137196173109756,,,,,,0.024824381876204237,,,,,,,,,,,
PLAT,0.09018276209540826,0.03255490276370054,0.07237692245822037,-0.01876869965572423,0.09502136433146938,-0.00855130766812881,0.022449364620483945,0.20731979456017938,0.2629752735464294,-0.018747975587671745,-0.020933970418167826,0.1104824297444698,-0.02102178639386749,0.18452608078052288,0.06794884501573267,0.07585649798467449,0.045879704864857804,0.19654855486695152,-0.025246614570796574,-0.038456564519155446,0.08716059296066511,0.07121653969424652,-0.04777192140629555,0.03319264455317674,0.06227723929167026,0.1032188097587622
NTF3,,,,,,,,,,,-0.013029254804898397,,0.05865487204689427,,,,,,-0.020433953696959595,0.025980847588787263,,0.0320507349708385,,,,
LTA,,,,-0.0235255230651907,,-0.02864883615951047,,,,-0.014903722307381547,,,,0.024472867564003825,,,,,,,,,,0.046311189919849345,,
CKLF,0.006818402001146018,0.03240073740699572,0.09491256400645381,0.024405523521204512,0.05945172477449728,-0.036572124363589614,0.040721488389267244,0.21389297240179375,0.3020432316692027,0.10029745252934893,0.02404023796248264,0.06426787495794732,0.07963276868154862,0.13060653309812184,0.21485523151961283,-0.04800614533650379,0.17576118337306598,0.21103681948028402,0.02505793043444508,0.10813398401419003,-0.0879568878877613,0.0630410188637635,0.017551092526657822,0.029917804645129657,0.032648632791438016,0.05245000573210406
APELA,,,,,,,,,,,,,0.03109428952723895,,,,,,,,,,,,,
CD24,-0.05089792320293993,0.064689652062058,0.06771106905303023,0.049280095802941265,0.07475979851987433,0.01725816141003886,-0.03321344031760579,0.10191832572555838,0.0753893937276825,0.10174933221814973,0.11640084803575157,0.021766445597865537,0.1734870949340564,0.0020134917821992295,-0.015145278797942413,0.06645794060690494,-0.16116611522101795,0.14420103058919057,-0.055021878830225066,-0.11110509938919352,-0.003901372418078709,0.010790273243981612,-0.026984212663666622,0.07538606394327996,0.01809707574344552,0.04676669291610041
HSP90AA1,-0.08018632855262385,0.03595365707560683,-0.05909928864895863,0.057987928310460804,-0.049403990258112825,0.0049459801827889775,-0.0333318079762082,-0.17362701058242663,-0.33567832936997477,0.1333178661048102,-0.004021719983221006,-0.03898097789514422,-0.039033441085726255,-0.15362087107807276,-0.16044193393201003,0.04007667270878737,-0.08618437355209232,-0.13326112232002485,-0.018485486493941796,-0.0662746199550311,0.04295050745801554,-0.06015317517828835,-0.049205177740003415,-0.10776530293543601,-0.11407675820472737,0.025170064742876287
BMP4,0.061712293765153574,-0.014621277063517884,0.04629608697332349,0.009988191046178636,-0.06573561634778038,0.032821058228088,0.0275432476529881,0.09765723041061504,-0.08425495382331541,0.030463677428208144,0.10734772212727557,0.06573916106762626,0.03763468958387446,0.011381701627763464,0.11060778902841711,0.07174818648140298,0.05313554749665519,0.11401473481919377,0.060345031511730825,0.03645870435978931,0.0859498105857637,0.052681737624476865,,0.08333701825858365,0.021236318945274585,
SCGB3A1,,,0.06723958685185713,,0.006630816915982097,,-0.02653280562543844,0.02290213464075586,,,-0.010406659546447192,0.04970943908948221,0.11831544178442463,0.03565729642575038,0.014176182590053292,0.06868482692068495,-0.05254623922964327,,0.018859471818862945,0.048605392751015046,,-0.012544619034440556,,0.06357719752862773,0.06863135653715007,
IGFBP4,0.04965157030132098,0.09801082752737296,0.09535509569793325,0.07204626087045124,0.08556509243968226,0.0016103196392355675,0.002741607958861279,0.21631246864380932,0.2844326411326543,0.026660783097575035,0.032692025631343484,0.16802974184065717,0.09203951058787907,0.10990312723110594,-0.06044259038973241,-0.022338581854579032,0.007342308082577177,0.07222525074143588,0.08800476273894872,0.037191314609835,0.11131323722100021,0.028181453726280694,0.04897497992440084,0.06157942121569353,-0.014613374670084524,0.050332126277156365
RSPO4,,0.0530604775928163,,0.009329026060574562,,0.02982813268176195,0.02943596462531862,,,-0.00877206022160311,-0.05429638287258008,,,0.06010733634953539,,,0.01133145328711257,,,,,0.08171675969786393,,0.06640667989646985,0.005118258509053163,
LEFTY2,-0.060067543305887955,-0.03796239141968193,0.05764255863369131,-0.007108845668308577,0.05667030551216288,-0.01157733955524658,0.09855744114797217,0.13562184255066712,0.22370702976852636,0.013519544723739183,0.04170563147580374,0.010496477254600952,-0.02965704215496984,0.028497089072332914,-0.0709116433503798,0.061093198786884344,,0.09237765913857451,0.007229099007364891,0.08382676746391111,0.04547564719762464,-0.0293787441268069,0.0034929022436945806,0.08963429455255259,0.07725881575179545,
PF4,,,0.037037867405574916,-0.024485528804075094,,-0.01734692065507858,,,,,,,,,,,,,,-0.06368943928639349,,,,0.007481967673621449,-0.010582871646809638,
ANGPTL2,0.07355929095216623,0.0111081729890423,0.04731426209814413,-0.008752782971966118,0.04636309949376273,-0.021774826797540073,-0.0033369337622620268,0.2503234770753328,0.2373805410973647,0.1250312278521189,0.04099176862773627,0.04163941982573633,-0.019428081043915503,0.09878630502146617,0.033098856261640205,-0.06112920904900083,0.056889083087879204,0.11660256726362209,0.05173397038131584,0.023061709252168945,-0.00517883994680577,0.007140010120084536,0.11375713707412569,0.134818867582026,0.12475244182421637,0.0495309103158932
LRIG2,0.0469073203377047,0.06495561034355658,0.025305499718778927,0.028380650948567655,0.03842251816638857,-0.0020223085600325707,-0.005711439908213211,0.09533529796453478,0.07876983287480326,-0.01336731899797579,-0.05216711957016674,-0.033213895964292146,0.029033727952252075,0.053726320837870795,-0.0415826016036781,-0.008621780970246008,0.011279396442907881,0.12823591628473488,-0.009198203606593607,0.08938936575961025,-0.03507634697410128,0.046102724762676316,0.0215779173289077,0.11804796363447607,-0.019788529207700384,0.005089231780776332
ICOSLG,0.02112496038703412,0.04530952455623954,0.014528102446427393,0.0113565430228618,-0.014199437253033612,0.052451179565002,0.018672633460606984,0.04807105331168465,0.11107718669043377,0.031587678149298415,0.061728872483058084,0.050439726126327,0.0806069798499183,0.037853182236593556,-0.01903234817744957,-0.04866480631367278,0.08330563868240047,0.07393126407224213,0.10907478065577268,0.12249838577964753,0.015375488371057486,0.0452810695408708,0.018608441844171156,0.033131860387514936,0.046375991966532346,0.042161844204608015
WIF1,,-0.07397304930247621,-0.04907349586208623,,0.04660993058089074,,-0.03345647681879481,-0.1856644823902157,-0.20659077095579226,0.03221102469185955,-0.013629121888814445,-0.027458899115107294,,-0.09122707398966066,,,,,,,,-0.10459798989109349,-0.04628731619839764,,7.507910635819889e-05,0.08017896565758785
NPPC,0.1101718801641973,-0.030447166405189092,0.005700579994331001,,-0.008478669303747648,-0.004660436968330539,-0.045511201744308234,-0.04215495861178908,-0.023484257876116348,0.02593262298673188,-0.016936574797680445,-0.031577847707026034,,0.1029772487434859,0.048272855014828205,-0.12520929220730526,-0.07955919545097982,0.05343744439072092,0.005720402899412084,0.03119043489230765,0.09702008909716316,-0.02456366461149481,-0.029886311658753512,,-0.010130932670225063,0.06214788659930736
LYZ,-0.00030445407871033985,0.0775580213797922,-0.004199720249601759,0.00521539035246558,-0.05046596208427909,0.034007868068476464,0.03548275516786053,-0.010162478727144273,0.20946514551142315,0.004053306835399443,0.02221344066039846,0.07990399969268748,0.024902715598568163,0.05108020863704432,-0.06720899783825506,0.027141626800476003,-0.057399056383511685,0.09134037073809863,0.07904295675434535,0.04005574115468257,0.021091567869253692,0.039968623525870106,0.05749574693279329,0.027261650781238437,0.06220422842938735,0.030099534487379218
EREG,,,,,-0.0003915304798323447,,0.012779440336460633,,,,,0.06595710502037573,0.016031801849257652,,,,,,0.09455308743492659,0.07085329891463801,,-0.04508610406811631,,-0.008085453736347637,0.0029822251566310127,
SPTAN1,0.06589348063150538,-0.06334928500657204,0.026006094261257034,-0.0936210448516154,-0.031416325292182586,0.0016689174394835997,-0.00911302744350781,-0.09819275056634849,-0.12252737155142396,0.03854743962474221,0.06943590500496394,0.013240765337108783,0.1122823413985157,-0.06318999621997588,-0.006366754326441322,-0.02058355575414586,0.019614482744884355,0.10351541801490291,-0.034255808770225625,-0.009819814840200823,0.03339067409084055,0.08471753193263684,0.02254443731505294,-0.007904008279267396,-0.11648787117251282,-0.009980035341516837
PTH2,,,,,,,,,,,,,,,,,,,,,,0.026682677469627644,,,,
LIPC,0.003958720696570618,0.02987975690526766,-0.02423217488017605,-0.011966128207566946,,-0.003068556447544128,-0.024710030191176725,-0.07112731509703288,0.0579459764103919,-0.017966871937557728,,-0.010763962998451618,0.055429258382183766,0.056963316339078064,0.009056923312406932,-0.0011087427210162506,0.027778450434453074,0.08206950493303374,,,0.028237900759944565,,,0.07575718765769707,-0.01694694506037183,
COL8A1,-0.03168958070438945,0.021521005971491085,0.04417763331187489,0.02816581398449567,-0.07213740349073654,0.04176759456473072,0.09000631989372454,0.11415384694525613,0.13446756550285346,-0.05896121719013925,0.047974673822029565,0.05517738073618965,-0.10563916776733831,0.14396315039753432,0.00038174361965151086,0.15806328967863278,0.04786394312100542,0.05436686821695641,0.07542800230336208,0.07607517571650387,0.14503056118544796,0.0014377703983062245,0.014865819050211641,0.014932230366393755,0.10143396208734572,
GSTM2,0.04751751632116862,0.02526594680096786,0.0006534238229354252,-0.029653774128120817,0.074918721835608,0.04022265598064486,-0.06131531785979673,0.01745754848629806,0.0973031801119243,0.005575974509391357,-0.008124507157475883,0.04260300467939889,0.0822724395608679,0.011926722366852683,0.041424729548843756,0.13148426182958792,-0.13493118586777877,0.1303552912652844,-0.008142097642555461,-0.007826109188316553,-0.008035158595660435,0.00505324647731209,0.0020816647349651096,0.08165203115475843,0.1269752076813299,
IL4,,,,,,,,,,,,,,,,0.1255472476754167,,,,,,,,,,
SPX,-0.05714234889193114,-0.010137490216743268,0.054462886719228554,0.010502268692252133,,0.012135287505529545,-0.01740320915567447,-0.10524341324310688,-0.10660576005723986,-0.03074405997015127,0.04235660262826868,-0.06025706342979899,,-0.07743766439707343,-0.013569438196312256,,,-0.0422819391715173,-0.029062619371229875,0.017894720906413204,-0.03657896416980736,0.008373300257281191,0.0735069407540276,0.10106963808506533,0.005661376824438486,0.07259875883202248
MFGE8,0.06555484007847183,0.11586574282638276,0.05269278285157586,-0.016974887074697482,0.037546707899492195,0.018996922169935905,-0.024675870427919272,0.08533576262941615,0.09002527123713913,0.02140167540505008,0.025473091475417688,0.06979871246493514,-0.014860856515636943,0.13005657998792045,0.1061280438359736,0.007670529158300563,-0.030238690650628626,0.08866919002127661,0.07027598184511405,0.07481529204242073,0.09311378630256031,0.014329035324093055,0.08074016291974617,0.07510025841749762,0.06468874969397789,0.006745545277759858
TGFA,-0.01985665743820582,0.14017722128219348,0.030665975740906383,0.03280010203241633,-0.007986599311947765,-0.026982193535426705,0.03344237678617866,0.07697071265034187,0.17648978445722113,-0.07586677832807305,-0.003908158128937865,0.0025180395517691904,0.042428964876689276,0.11123146680160606,0.06348833280748244,0.03736423212613536,0.036069408308343265,-0.007787667050925185,0.032893653590468974,0.05823239212307975,0.03122742218524109,0.007235190819202142,-0.00971395816347846,0.17514070426527303,0.09204818450158068,0.00692302359829191
SLIT2,-0.04544630527393006,-0.11284059736250932,0.008997966408221057,-0.03723000424041867,-0.01812057939009493,0.020749912059403654,0.01480294557569021,-0.007746275749668618,-0.09800398167804168,-0.028503180545619993,0.024316828793319787,0.005406592704994045,0.04751955263744446,-0.12152398480416242,0.04519179382710457,-0.0536299553813363,0.03472997606790733,0.03738124586504987,0.010947630715986987,0.1090657256452427,0.08899329875790316,-0.01711185542209703,-0.10326574618864033,0.021897856882773677,0.08241847366055699,0.03866371446730896
PLTP,0.015179324221033835,0.038352964692451946,0.0368664467415207,0.01951663037972799,0.0038805858407312105,0.02254731935078404,0.08259403288820526,0.05970718579184677,0.3286082564728717,0.0701329785642405,0.06484567737938632,0.08251020804555052,0.05727690207064648,-0.0012789071115067439,-0.03559571846119676,-0.01144743899672443,-0.0887983156897949,0.10286575195569717,0.09311895349091,0.08359335758908053,0.00809652649862125,-0.0027017061227377548,0.13021715886545204,-0.0555615346368243,0.04048213000700659,0.06046871741233995
APOD,-0.09434759657489729,-0.04876454245175679,0.007283230704181471,-0.0006647098490685972,-0.01782595197148112,-0.06478749591282948,-0.05004239947274204,-0.05903915012050979,0.15308595993864332,0.07942636996864924,0.03186669297021871,0.07919777622014655,0.10720589111838971,-0.04747627300737139,-0.17899282807832465,-0.04047993897721466,0.039328731277616207,-0.2258022504306382,-0.032546410098667225,0.030825686319075212,0.01719830709426607,0.013704144032261728,-0.04405920619738109,-0.1317205236919204,-0.15388752950256004,0.1216636631856304
B2M,0.09789996052443642,-0.006796491942767576,0.09937214712214976,0.033020064603517196,-0.008160145252001021,-0.028516156879014095,-0.0014760153018477486,0.18390191036974013,0.3733091177347179,0.13163302383701778,0.11082774678826646,0.11253487193809023,0.13993319344450236,0.14208377804475497,-0.05544255725407205,0.12625616383495963,0.1442704413708924,0.04544996465008003,0.23007806566838612,0.1815835061296257,0.0332415361219371,-0.005239291888215464,0.13069068700345005,-0.05442439583468561,0.0027887401182642014,0.028326048067976888
OMG,-0.04601415191778471,-0.08855739328912887,0.011360898585012907,-0.046218452137923874,0.022175811652586953,-0.0029424512550612885,-0.014260510320302854,-0.028489010034971497,-0.0848240660224258,0.03744950563460441,-0.051270873877331515,-0.017724173148571967,-0.06743994599176387,-0.029274245875385938,-0.06579246482137914,0.015459417795074936,-0.015055239012230328,-0.09812893329591957,-0.021973127597320653,0.060728952973099264,0.05199150729976092,-0.06216791499215741,0.07890737442720029,0.03781864242544271,-0.08154124474314164,0.09543173955756891
CXCL3,-0.055560070035592955,0.052911742525882946,0.025725350473495792,0.03997513447403763,0.0658920318094362,0.005347926043667952,0.06251157399156956,,0.04210990898523089,-0.02257220403439915,0.05248089453201148,-0.01382217891988453,0.07990287448688882,0.010372340134296507,-0.04713088639984011,-0.008570741850458108,,,0.1236785194661355,0.12815768703411418,0.098932635491456,0.021836878191259766,-0.06983686812331352,0.03408113591721372,0.07488450641892262,
CXCL10,0.11098718974292042,-0.006389397575380349,0.049315469330981056,-0.008213532111927725,,0.024694114770986597,0.09118622784206284,0.04022720644612149,0.30820526992358627,0.10235731841745159,-0.018158716380106302,-0.031113705762839106,0.02676478651142244,3.7862269753727965e-05,0.009316302792885502,-0.010651501110142497,-0.025544148121906904,0.02233737303167148,0.1002028483573706,-0.021462680912784218,-0.06646796642502442,0.03736501791914163,,0.10295383927619674,0.03802197883693108,
RSPO3,,,-0.006815191290877249,,0.0027478708722430837,0.013555816540822363,-0.037579720288355774,-0.014884205798374229,-0.06904705010694291,-0.023457013135349446,-0.01816756401403096,0.006156358629622171,,-0.02896697433230885,,,,,-0.0010564295795005302,0.02071254898934603,,0.011435402032373308,0.10148563956582124,0.06205745011289025,-0.02509254448466852,0.03320046126557501
CORT,0.021552542217591515,-0.08958903322129082,0.0035465960078726304,0.011381334935845398,0.03607451795775914,-0.008193508437670345,-0.059161360750387415,-0.05035341358617254,-0.11735108755378898,0.04511727438899504,-0.06972439052112166,0.023477381248855015,,0.009188873728597448,,,,,-0.023729856894815066,-0.009667583416576466,,-0.0029205532156272064,0.038142666227648475,,,0.03484358124697919
NCAN,-0.03749354702753983,-0.058439637593018665,0.08496893329588075,-0.05683695801139958,0.0022882542532420675,0.007856812771415395,-0.04142879059354252,0.04614181755523191,0.11286221675749437,-0.027507647360852077,-0.016104119513959805,-0.0013057216549037707,,0.20019252889541186,-0.2094323666948106,0.015426224343088622,0.18234327922282173,0.011094305387758883,-0.045406599026408714,-0.002013454059910364,0.08556864932936677,-0.01576569674793695,0.11121775192487994,0.03279960986032185,-0.05451349710893434,0.006553708334438528
PRG4,,0.01996226497128722,0.023404551876058253,,-0.05814795189054267,-0.028665400731222326,-0.007867706434079143,,0.08096732869365149,0.042619549661425095,,,,0.03153618637254025,,,,,0.019212734766861934,0.015009673766482408,,0.01169522391857365,,0.06573292457036686,0.07932960827318464,
ZG16B,,,-0.0015529233838948713,0.07533577866422336,,0.024467724552323898,,,-0.0043526264842662305,-0.019605448270976964,,,0.012158094333396097,,,,,0.025750714640300293,,,,,,0.01508926825691283,-0.043327233382823155,
TGM2,0.04999117347807109,0.042343788414084066,0.011758908694064936,-0.038457530300289575,0.04218029906730646,-0.03755539872769133,0.049986016301289814,0.054318577582651226,0.1798515680432829,-0.0532029253441669,0.005311216530259248,0.020114433972510178,0.05073193907108215,-0.027018097269155168,-0.021171763249696295,0.03677280765651607,-0.023175121970191535,0.028396401888802155,0.14673361554907444,0.1645840380342524,0.04897749254507232,0.05185504607824204,-0.04842485954071344,0.04253642610211535,-0.017724792675601408,0.08966701463831993
VEGFC,-0.0539383676990272,0.0122435980428515,0.05222176259302762,0.02977508606226686,0.08817517948088104,0.03959981966616723,0.05331114140500443,0.014035210925823792,0.026085706624132034,-0.0469262392944774,0.028084351748707014,-0.02303641337305007,0.035865883446771975,-0.021188697430885053,-0.04847900345493238,0.04452125497882591,0.017993587329646912,0.0791495240405339,0.053527619500231986,0.06572785861661427,-0.009602417449494126,-0.0036817539891611465,,0.052236728843253415,0.10051799684381987,
WNT6,,-0.03377402564674208,0.048327776267607835,0.015313513399919468,0.04118364089248015,-0.012850848202639875,0.02284545043028442,0.061565919517732895,0.005409252610313868,-0.03390101286810288,,,0.002089029485342465,0.04175875390995618,,-0.0031492871868143463,,0.018445453964602985,-0.0006631847706190006,0.08387522219417025,,0.007903617169143543,,0.004047568199798178,0.06645297451016617,
NRG4,,-0.08344394334452343,-0.023727015203393487,,0.017518077557129044,-0.011850177664237462,-0.0019046265736032252,0.0408471395908766,0.012067609005716254,-0.014156462757391516,0.0853754745284261,-0.0027215209769159685,,-0.024146997792600516,,,-0.10854361437348829,,,,0.041022318154037764,0.025485729110014423,,0.018814306682588287,-0.011592915786809413,
PMCH,,,-0.01744353965038166,,,0.02646331764055955,,,,0.032344330156657435,,,,,,,,,0.06891424564202883,0.07550388734731384,,0.010960383548280188,,0.014142751935147052,-0.048072273301271375,
COL9A1,0.09563160143910161,-0.027137618925288303,0.029013601365249886,-0.026986634966511686,0.06619533911287877,0.023435485474985897,-0.043597911461039245,0.25616960161221886,0.06204526797289195,0.07705229792618955,0.03917459303592584,0.038745650058725975,,0.04161719169670637,0.05602101350511089,0.07449256412599944,-0.00714402918253045,0.08106724612667517,0.0009386584379519748,-0.008673840321352606,-0.008344853953149628,0.05195574482429215,,0.09901780118099877,0.08410109636503763,-0.03429384362567795
GDF11,0.035766990834001776,0.009311053220367814,-0.015280719503528668,0.019848591895310994,0.07440558986575144,-0.0017391543537913895,-0.03723102233708849,0.19186455054217041,0.19163956440522087,0.009482345767749022,0.0008095342798364255,0.04044071965605825,0.10575947032210652,0.046823435841551825,0.029546506942951717,0.04133362520521916,-0.02530735775030185,0.08289451675040418,-0.10980471810288818,-0.02033095358937126,0.027327808599663803,0.037560189010647206,0.05949056864152899,0.05800341467724804,-0.04430212845437083,0.0010264267770728971
RAET1E,,,,,,,,,,,,,,,,,,,,,,,,-0.003286322847232669,,
IL24,,,,,,,,,,,,,-0.004320387402497548,,,,,,-0.01076963598796585,0.055449398435068256,,,,,0.08156233486389768,
SORBS1,0.013269914984103006,0.026197264544150514,0.05479930630522965,-0.02855769394054708,0.05781106180766271,0.004063744309204614,0.04908422370858588,0.009630145431980269,0.0265962664058961,0.018185731344234284,-0.04817330945953659,0.08515121912874143,0.011923772744310614,0.04826137002245282,-0.0006678082552517024,0.09205264029755217,0.046909855678328866,0.055826363758509585,0.06295109885724012,-0.017296229509183584,-0.06433979246720262,0.0437389299550593,0.0017177285673134774,-0.00045912303509006554,0.027738001819161598,-0.05578835316743598
DLL1,-0.039327844076389146,-0.07671157598459773,0.02098694809461428,0.0570789161840696,0.0666256359417181,-0.024833709767701388,0.0553851387517632,0.1574071487778243,0.14580408193674876,0.05442863480316162,-0.008520965320240674,-0.029602851840629062,0.05797074263620954,0.03763858149311225,0.047639384967856496,0.010414796749100326,0.07116301324102695,0.0651605352247484,-0.010904803190136717,0.06726647818265216,0.03370701223399747,0.05365990587133764,0.11242068963102059,0.12924800028270717,0.10889281516198222,0.03156524581886705
TLN1,0.06461676967014866,0.09864587072913052,0.041621486521677645,0.05699415794359908,0.036243510028236565,-0.021941205034298857,0.0860122419901994,0.15445271541081265,0.21743550950135607,0.020196088464760193,0.053007704228077525,0.0874112767010289,0.11076684875065562,0.17094764324309158,-0.006041541761931635,0.045784130389846946,-0.039171221560935485,0.16855808860110233,0.10417822272026396,0.05879720426380181,-0.02695760886051298,-0.0038473058200374026,0.00048399971366384166,0.014812712508886995,0.07025335823186386,0.04550850135816156
COL2A1,-0.02735181708584941,0.0053067892878167705,0.036884409608708514,,,,-0.0008476435812103961,0.05205336448327778,0.03404579788286726,,,,,0.03314853508375802,,,,,0.08120016974573573,0.1472849782841817,,0.05240288866534033,,-0.010180525548698341,0.06603414540678745,
SHH,,,,,,-0.006797181266000914,0.028594560652781747,0.04028892320998598,0.043581224619496615,-0.033888072174823695,0.027678473815648547,,,-0.013307671522431161,0.02441962791263914,0.051837217735522995,,,0.06464903046489,0.11095840357805317,0.001867630770278844,0.013715851892946539,,0.07892306773018862,0.09916214226361673,
PON2,0.04163280339824354,-0.07698570543602351,0.09148829502535004,-0.008987269724198124,0.06399410188630927,-0.04968924957148205,0.028537316990090954,0.02502236878101742,0.2523409151433581,-0.032691856489984364,0.040476757399483435,-0.030657394317419647,0.16519794386539002,0.09378750477712092,-0.04695048193152521,0.0406000334810605,0.1732568787425428,0.032678964805970274,0.07075049060924175,0.04764515251977326,-0.022130275970157008,-0.06933038121440263,0.0704973393989799,0.041592410725265976,0.14809639623158716,-0.030673518626221773
ICAM5,,-0.0876752930792791,0.016692303392372227,0.004640164188516115,0.05626693614401852,0.0032306619651529278,-0.016414784588518076,0.009633440827329663,-0.11931068349524922,-0.00124673513104205,-0.00028825770657211504,-0.04251372671847305,0.030235964805757385,-0.10319083217678687,,,,,-0.05272643142636239,0.04045220670421268,,-0.034931774310648575,-0.08125331203901086,0.005365274093301316,-0.022348492156217478,0.03646695888700509
HPX,0.005862421093811802,0.0503013367059297,-0.07211902880849855,,-0.015459613361268103,0.028833193505422308,0.032590599999857535,0.037378404693938036,0.10636900761920653,0.00836735764190169,-0.029227960225841634,,0.044231866382530356,-0.017349483723835418,0.046730119103003044,0.04153056966562766,-0.0521129511150172,-0.03883793545134091,0.04244142720237582,0.08684850883770674,0.027142363337723865,0.05234492917060281,,0.10332098473831489,-0.0023741142109106324,
SFRP2,,-0.006408793246252914,0.05628339850426819,,,0.05265794017874706,,-0.05376214602904734,0.042320267845812005,-0.023126904502944953,-0.019263418365439388,0.09593010271940126,0.09007662314255656,-0.0580288498622062,-0.020389736779927968,-0.017690750467509484,,-0.0308045324814546,0.1282812737719614,0.0844758122816428,0.027636437747700908,-0.03431080636939185,0.09566460386008316,0.11152817438316814,0.0347352663665024,-0.056467170432689
CFC1,,,,,,,,-0.03541033285201882,,0.01248973609721652,,0.008026860097859814,,,,,,,,,,,,,-0.053295249743483875,
CD70,,,0.032410303803533214,,,0.01306957354686833,,,,-0.0063922419554125,,,0.09934644519340077,,,,-0.05568382923709356,,0.13627394522069916,0.11201435808363626,,0.0016607188138844957,,-0.02756422322817592,0.0584732058349785,
HP,-0.0052474016157673,0.011347145819402387,0.09761356787921065,,-0.006309900941335433,-0.006863622906932663,0.040992320389233214,,0.1342519349677408,0.07312650263903837,0.006504062518242407,0.06469572371726003,,0.03475557466853006,0.045450035145354485,0.10612269379844019,0.07239448253128389,0.12658457791805686,0.0990520701496586,0.07794330807719826,0.0329054825462138,0.00518136025104267,,0.05232150374288522,0.05687743705949224,
CXCL2,-0.007215168178764741,0.02384795804500578,0.027501898479022045,-0.008581862194435968,0.034920836610938796,0.013845213537849753,0.056327554194223264,0.07797801745566199,0.08566431570159608,0.10568653391682346,0.02090627283224137,0.06119603893144758,0.10769639550959406,0.01873108758434154,-0.006344641241298366,0.03776116025763209,-0.03138095494806851,,0.14851355568160962,0.1832257726971689,0.10572416920465424,0.0007261643166761549,0.0199810261057454,0.08728125810073396,0.13335729320836606,-0.0263125452155854
NPPB,,,0.009396333900612418,,0.037245657682404835,0.051741884877717435,,,,-0.007286768779644627,,,,0.03276789425108553,,,,,0.07426848625092264,0.01144699072293867,,0.022761046596463646,,0.0658075522051435,,
CCK,0.06426573787970646,-0.11976243865845605,0.01267698061658631,0.02825077668114068,0.010257220213062461,-0.052117418845394996,-0.11198349175644201,-0.2308723292312286,-0.24723807498858102,0.01639484461741162,-0.06776182906303495,-0.06432073388423025,,-0.17861810924808338,0.0949156889519961,,,0.011400332795716688,-0.06357235250611658,0.005625843418113496,-0.05385822155514249,-0.05795062388485213,-0.053718909099100175,0.04357300850623382,-0.1982606759987949,-0.04545334993789478
SEMA6A,0.029595558814555376,0.025342105091554913,0.08927711886934178,-0.0070507614682286035,0.05834784629666004,-0.027641495842158543,-0.04044737158107236,0.1758610154092863,0.17911874476915826,-0.007265870126546144,0.044945891188956755,0.0020401565642794747,0.02757166652474772,0.19055083736479977,0.0719982043550973,0.0018075522740049496,0.12634043162678835,-0.022419387610428422,-0.02771085124871505,-0.016418567316898686,0.00044011285782245076,0.003265664564029283,0.04328015672733339,0.0017849105533341762,0.18352451915018236,0.05716231493368176
IRAK4,0.005292346622249692,0.1116430727650895,-0.007551822092928762,-0.05327748024673575,0.02791396599945971,-0.010705575609397054,0.05717890640060633,0.09142555002573932,0.19939806300615814,0.030742754752976966,0.079777641921307,-0.003437987797641615,0.07193227848603077,0.09383721718048328,0.0965449323341182,0.09439328657721452,0.07505839733282449,0.1667978170743798,0.04863892432584611,0.06047688052294469,0.06405653010411036,0.08112108377836998,0.05014227639203973,0.060052658557553575,0.09092245771984031,-0.027212247454379303
GSTP1,0.11516347571061554,0.006319098026449106,0.12791234511103583,0.012127906839405173,0.05675086007707374,0.018864977684429633,-0.0015391030370311537,0.16632116154388524,0.287985681463482,0.06762263769891279,0.04814158943814934,0.03428696078699837,-0.03648745883816695,0.11914972328213456,0.09834959930594842,-0.1663792074032623,0.11988275150561889,-0.033364729374866876,0.024212995930295637,0.09328688303417582,0.004100452819805054,1.4085887694957454e-05,-0.026736814255034547,0.11289575510401124,0.13505815464340437,0.06158827575016173
VCAM1,-0.0573366652684631,0.0743214200840741,0.04019538320088869,0.05380887180324246,-0.0858982216270839,-0.011838974686743204,0.06312869255629239,0.03825169702712306,0.31321088926142476,0.05668370708176321,0.027977694808956326,0.02801193599938947,-0.02196908406523795,0.07905842965670482,0.027884508567695154,0.135938460367625,0.018973079320385437,0.10868313985391588,0.10187568135498087,0.1223923690771755,0.12386726661828182,0.023088201736534423,0.03534276666233382,0.1273184924351616,0.16422143667206832,0.09870358678595616
NXPH3,0.028448886203446915,0.06806419421774575,0.0132106917135189,-0.03595362921619824,0.0451690644860239,-0.01855035214682706,0.07274484575558181,0.13136036174746638,0.08493760760761047,0.0722782110031114,0.010673248599436812,-0.023823245594969015,0.03847881250880576,-0.0019393019803031835,0.014788846602666541,0.0034127123765356083,-0.020093140333793186,0.16561861039998904,0.04924805579877551,0.1004488527680402,0.043177224684064354,0.028091197792108884,0.0053019302195817,0.07626983294447416,0.11391922609163917,0.0844334034662891
MTMR4,0.002968911810769419,0.031222119855042363,-0.00496397052615154,-0.012916278143128311,0.04358604828451587,-0.05102994865145781,-0.018816775546135485,0.021357776779683854,0.01855100370089678,0.04405756842715949,0.003128689426939149,0.11982995732498503,0.0366372651584831,0.0345953222017891,0.03644594729671034,-0.01758503977723228,0.04396770332484111,0.05381215049634393,0.015802227848949087,0.0740264390044242,0.027548318952451824,0.023134939146246578,0.09377648465766032,0.13433405563034986,0.07590456972809413,0.08742160378767629
LAMC2,,0.03642322500779676,0.06962671891179964,,,0.020891912525763598,,-0.002576963968033941,,0.04266935341490051,,,-0.011215113513333723,,,,-0.008124403364466239,,0.031824686539594305,-0.011557030419365575,0.01522239694412824,0.010116587122237708,,0.04264069243640103,-0.009564882220853561,
IL10,0.01631479060527657,0.0681897915463017,0.005964346452471849,-0.01654891099242777,0.0013889203012305176,0.005686424986278551,-0.010326034453224367,,0.013660022730297079,0.06336722276282246,,0.05570003896620912,-0.005541224494438906,0.022336759612653957,-0.01731484683405526,0.017278456134946274,-0.0207045958183847,0.0009541859733509825,0.03676208571861293,0.06175816093522167,-0.014817917489407764,-0.021506999876882923,,0.03474965420405458,0.10899404586056921,
SEMA4D,0.0022879975459004537,-0.0047587213192348595,0.04366107809487008,0.042862592032824456,0.040114362815577904,-0.015032390396450336,-0.024965099029139747,0.017520608896968472,-0.06600257723116276,0.13768938579724227,-0.03615538170457486,0.032980685071916406,0.037586818091057864,0.05825833324765576,-0.10333555567150839,0.054706391249843674,0.09225977218943872,-0.1148148087136073,-0.06586860588712405,0.04496165427369231,-0.0911487643761717,-0.02441802869429605,0.08252407352914679,0.11429541751268378,0.04979303427714638,0.10611355184027622
TRH,-0.05342731977089618,0.09384854300819201,-0.0087386812736711,,0.006391608236691379,0.0052086858444251065,-0.030621143414888894,0.0782064151168535,0.06206808182849469,0.02461160029340338,,-0.05333088269175047,,0.06754145306484874,-0.07299388229763765,-0.042248973031332716,,,-0.05059629986041278,0.07062010763105289,0.027401926016185765,0.013546678021864829,-0.03849780821441422,0.030855154764559713,0.08861619290383872,
SEMA6D,0.036027004495161385,-0.03587297700457882,-0.06566949591175185,0.0013771827870460273,0.031333629566398305,-0.03541011400697258,-0.00552940101923805,0.13678289765053267,0.11518944628613652,-0.013692225516518938,0.006687430147947287,-0.0019385500300177633,0.010328797304108706,0.16732309795586625,0.11045289647276255,0.03193657086226668,0.0021273533270979904,0.04112810838804893,0.029865879897591745,-0.03516642542749762,-0.06163589543165808,0.024444989760010593,0.09661173940730766,0.0204622804232098,0.08452231246509388,0.03649900812130632
CEL,,,,,0.0012326180484376532,,0.029743761177800976,,,,,,,,,0.006085148929008077,-0.0892484273850915,0.07938558266182645,-0.020325931196882842,0.014929950178375367,0.1070943424638604,0.030517228618109942,,0.009615013313966598,0.06175315790094455,
PDCD1LG2,0.044377211830800505,0.027072990140431387,0.041823569838035105,0.0061950998805641025,-0.08016660172759302,0.010221879570443173,0.014140945529308611,-0.059076112265875835,0.08782567143095679,0.03848722507506232,0.006144980432920544,0.05737783231270373,0.03715545041201637,0.07074165634085301,0.0710401579329688,0.11703554141210606,-0.0490668174413382,0.10057121499042632,0.03305074329116769,0.11081095723632105,-0.033977640548942506,0.021659863143915697,,0.07984431921365526,0.1695522960157515,
SPINT1,0.026316778853814813,0.05660706599377437,-0.016685941650691222,-0.0020974871030491416,-0.004106339784013186,0.061103357927858384,-0.019907013804877596,0.006966701928164156,0.1272702978504945,0.011973438599109086,-0.004311979050770595,-0.009167667862627292,0.07617152503654173,-0.010920625127081616,0.04205845925933175,0.12256508046315297,-0.016462538145301592,0.029868684974966395,0.042720654725210264,-0.0006173045645337004,0.04345089276966529,0.00928704655503236,,0.09415804663571355,0.06429600503015696,
CTHRC1,0.041688085509305556,0.028477294653893107,0.05755892516852596,0.017700956700711527,0.002211904454552069,-0.022204590170005357,0.01161083055044758,0.2789044681032996,0.17551794596802037,0.04009506939335764,-0.003662895544435267,0.03539021514289563,-0.03388748056380871,0.07947076774554222,0.08313033854080205,-0.008716452202586192,0.0074563186211456245,0.12423799408726217,0.0980029043307223,0.11253670432444723,0.001312411751884382,0.10034273471341174,,0.08296019252966201,0.05901727976714755,0.11743521306362441
PODXL,0.034917262860989076,-0.028187503586261337,0.0989119417744057,0.017544786875121586,0.032468674031289606,0.0040931820818130744,0.06749313739844745,0.16691611561701014,0.3199784185508302,-0.0026359962629411153,0.030353852358708626,0.003920105350581919,0.09792640164535285,0.048219658795180316,0.06682093968541296,-0.022558860579419117,0.009842226486258033,0.07795006414794015,0.05743097855122306,0.0710034380953835,-0.0015112090657893205,0.07155298479178342,-0.0453777314314836,-0.018078877185568776,0.0472016757638536,-0.11848106482456496
JAM3,-0.02603950813810266,0.006602177355401086,0.05267831735857359,0.08669936191903795,0.05197124946472816,0.011359940043136268,0.036517063700173776,0.08766321668641318,0.28470365325511204,-0.005347605303581149,0.04808548061569128,0.04626340026812994,0.087525229057709,0.11874182889840218,-0.025089032110286066,0.10814313573210338,-0.013411761106956872,-0.08896761099329457,0.03539438778833649,0.06983434658596711,0.05414495971575378,-0.001272193307857516,-0.025993200343383108,0.02269765190647679,0.022909062477071297,0.008587736010884086
TGFB2,-0.09981962024289803,0.019175279739581576,0.07013621064618862,-0.039178414608655225,-0.010786449585846103,-0.013862205435907061,0.0004934656606339226,0.029170475734188378,0.31054799825655904,-0.01236868934363151,0.05971315164072965,0.08516779825316179,0.11034241951269858,0.10354209815003136,0.009315538894971578,0.009139058877164144,-0.03361304915996075,0.08880945960690162,-0.04912259774755504,0.02441637256653211,0.03292786786972603,0.05115777941117728,0.04596810226636747,-0.016872430178391906,0.054710560062747056,0.04372983836921732
COL18A1,-0.0019832150273512666,0.04290764908124763,0.07039007305569851,0.00794762272401375,0.03197642773041398,0.05236071936081947,0.018490368998536306,0.22717830780314346,0.23281915090537914,-0.008958690139101937,0.02766821357554935,0.03928568497447873,0.1581318523135385,0.05120018201766125,0.014770134837806754,-0.007571961299151699,-0.004955178546044629,0.06359286697572496,0.05554121182173865,0.14490184723768032,0.05379306397862997,0.01761907096038202,-0.029182722913724896,-0.033161534745507544,-0.0645477557598931,0.1578829838634377
NODAL,-0.011225271806236217,,-0.05317605176720851,0.0657339040645474,,0.010644160669447962,-0.01846082464992113,0.05168463082784112,0.12789482820568984,,,,,-0.048439528557153055,0.14113234975150818,0.07751363873362853,0.007371227195753006,0.13627290780658413,-0.03823797724619907,0.05529723510563139,0.034599337051544506,0.039030553624173035,,0.015719557972352055,-0.02692559708200828,
INHBB,-0.013594072424107137,0.023969927213180198,0.021853578148969797,0.05477201713188958,0.003333270165710579,0.06090365018801856,-0.017244555667574046,0.0383082595744433,0.17434255425415587,-0.011053244875742683,0.015480220878312882,0.037297737168728494,0.13720350967834913,0.09751369014420279,-0.03813149240173123,-0.04133710530643134,-0.05640654269808847,0.14537778110918892,0.10297580693725303,0.07290878181416281,0.09045120939147086,0.011554327164997692,0.09942559345372672,0.14355599261690263,0.10539258363759464,0.08998667678042459
LCN1,,,0.015008504505633838,,,,,,-0.018923873415013996,,,,,,-0.021552610849514323,,,,0.027654333197341806,-0.029684196991609398,,,,0.004213013236605464,-0.019019668199666974,
ARF4,0.02196132034670985,0.06243603567080666,0.08907879201574317,-0.040020282357989746,-0.08127785339646902,0.003878884134373823,-0.049747036559701814,0.09367242620996907,0.17528905678780715,0.04677034840607818,0.028513600060092188,-0.005661456288037545,0.10507821325344038,0.058311670335121836,0.09859116404795583,0.10052324176850859,0.0970120441869695,0.1611167744179029,0.04650250094851082,0.08574101809239092,0.02359803138222663,0.09496833750883125,0.0634713792400824,0.02812721331548501,0.04264127784424184,0.0031054409855745336
CXCL14,-0.11230729562604705,-0.004180477637485567,0.0546791224925583,-0.0394347052030216,0.10512324322633215,0.01240829894753865,-0.031393036131286446,-0.14033380734295905,-0.03086071009062604,-0.06949520185087953,0.016549270235186108,0.022398078996854316,0.04288769856765129,-0.06260042305948062,-0.089481069784798,0.018395649771430718,0.04706081276163518,0.038590282653793995,0.0681510267476513,0.03231360381084232,0.1189540141667834,-0.03128478501585996,0.06890129308215735,0.018194158164846538,0.1035125852431058,0.08576596036589702
LIF,0.061964652556878864,0.12488726722023534,0.07833562646023459,-0.035381439883469146,0.0019327471821842088,-0.015932407738903993,0.0429888110896675,0.09421953918957282,0.16333258325957953,-0.04315775873424616,-0.0447401684305074,0.018903599445643637,0.08454364752702012,0.07998144883149931,0.16534694227395416,0.06682735989586717,0.06352256730215089,0.0805154624123,0.0630542463352998,0.10218161636325891,0.0485698835110689,0.054096297970699446,0.03831242246980358,0.08479218504363233,0.10558401425724351,
IL17B,,0.05477174047084493,,,0.026954755982609043,,,,0.09618245255517112,,,,0.042977992326215006,,0.06594604815570251,0.011638873882066926,0.030921412773464035,,0.024260607348478895,0.008848703939952227,,0.06723778013123942,,0.05353938138051265,0.04027780868874564,
MMP1,,,0.051469190017095295,,-0.04426955056534624,,-0.015017205575201873,,,,,,-0.06756457246455576,,0.1151764324216119,0.038900238220769094,,,0.039461374835934,0.038168688152827826,,-0.013674801094592126,,0.08401998338414471,0.03250511964907552,
MATN1,,0.06842539463794967,0.02657930667975212,,-0.041588564743140724,,,0.0009374704940424304,-0.029431526109785357,0.010564253121582002,,,0.012525954829259018,0.028010380127277624,,,-0.0036058815977087163,,0.044768662539023174,0.01204488490876082,-0.0018126269714466114,0.017176671704722868,,0.05535986160852539,0.005435222598993506,
ADAM28,-0.04490491522982755,0.08087996192129834,0.0004363643158790577,-0.0076699118017825646,-0.009315608978842965,0.010047947149175507,0.006839655258755546,0.03279400645801188,0.12751920927488758,0.042673545155883445,0.011955211809618952,0.03237333555317182,0.013939711339700882,0.07488208242676968,0.013060102938397239,-0.05487542051436184,0.15449148601873336,0.09741473565218396,0.08016380708534612,0.006728090700374688,-0.012045181551324839,0.029465220619828827,0.03796782631326066,0.10100599326997027,-0.002593261151514615,0.04945994850000089
TCN2,0.01048035496743741,0.029042717220046897,0.05674740355512647,0.050680605361365254,-0.01789200425827049,0.014346645010002552,0.009508590304348566,0.07991977909006495,0.2048410249861617,0.008369042111210203,0.0018618064859138195,0.10908526283172133,-0.02512633208190581,-0.046848745069347594,0.025309521274914728,0.0032838810448405473,0.012381865549740054,0.09567331150494346,0.051672314073861185,0.028848100720676416,-0.025018284774705805,0.013472953688524107,-0.03098286881961335,0.03972414906707395,-0.0014122068707799697,0.019574729115219104
THPO,,,0.07839521710632476,,,-0.03758078767542434,,-0.049056469291478444,0.0381695431784512,0.031873675945423396,-0.000837534091051196,-0.013870693276819137,,-0.035824929167072035,,0.03894097816789165,0.11358086731047479,0.0017660690635069559,,,,-0.04420861740969748,,-0.038719924812947754,0.031036596800589095,
CUBN,0.034942937017509584,0.13355090001681422,0.04261246095840475,0.02000870728990608,-0.12083253657069366,-0.004115343235067381,-0.00997159449739622,0.05850783727439839,0.11483137750918002,0.03377041729786395,-0.017596087977712976,0.01172109455374334,0.10710151143509043,0.012816337881820976,-0.012455057843218816,-0.004040726762102775,0.00020511364575974837,0.18235182379706605,0.06289917033740328,0.10133155294255203,0.011852535875820622,0.002508244519054619,0.16241637377776622,0.04714177167956337,-0.0023031747511322604,
TIMP3,0.01656450361773267,0.014776673256532237,0.08111853870457027,0.0004537414778215898,-0.014844407461984656,0.03376682199598482,-0.010396091401084497,0.03936546439964578,0.13450622863019576,0.07996480186400738,0.012549775774489715,0.04834475740823264,-0.0812157610804571,0.0178807591121611,-0.0920687510826347,-0.061216535533763564,-0.011122475560861565,-0.016354273035248324,-0.036341090339292406,0.11064435246812199,0.08584974356387123,-0.006315879231316704,-0.022187386491295424,-0.001652425854050431,0.026169413920521748,0.12864634310105855
PIGF,0.08948551564943281,0.053960110434504896,0.05057420601978243,0.008300947485561249,0.07610535375279252,-0.014036083900666053,-4.89339827467205e-05,0.1089813901467851,0.2242115232238387,0.0026794068860307623,0.0063586428131153245,0.03421772068913896,0.19706353509266075,0.036186383548770025,-0.058712344154623765,-0.0038466934128537165,0.08149370251176064,0.13319625627519888,-0.03156477043884164,0.053764684924047526,0.06858344572158462,-0.02908235368297568,0.11487741441849929,0.1290792649473851,0.015238061309069077,0.09218666144900292
CRH,,,-0.004751607143237933,-0.017952818595868423,,-0.048946824499433786,-0.01243783728056393,0.04624584100621248,-0.07856983917115057,-0.009141637897938289,-0.005212905839612422,0.002700719163656639,,-0.05829577466303765,,,,,0.043743679351656996,0.020551077223305955,0.06906390513446395,-0.009791897553956755,-0.08376132896277677,0.017183185958822237,0.0443958677336839,0.021419558065120557
BDNF,,-0.08226064962637189,-0.012507883229337689,0.039671265088252604,-0.037626753926745124,-0.03886150885379841,0.0043534455497999955,-0.09457915512636558,-0.23066146449929337,-0.004708374418380416,-0.002768522910233809,-0.009185844177290636,0.02656552450115686,-0.045585980939035854,0.08385624623545684,0.10881540084146869,,,0.12251530909421653,0.019870647943974355,0.0867015772422725,0.02352096596883717,0.0682105354684552,0.108430129066276,0.1066585932700596,-0.04246357297852401
CCL5,-0.055281513298641394,0.04903016457280143,0.0475749069707085,-0.008833230888580845,,0.03557974680082478,0.001849337564588977,0.04506709147143967,0.13825222716840607,0.018425497383983715,0.06040783463938733,0.01654199488854188,0.03541339811412055,-0.00595429605687832,0.033497167029938636,0.070129931002331,-0.03625918515655731,0.004341839674603603,0.004552612447892691,0.08335579594192209,0.009399317697855614,0.040063219876771486,-0.020757422793787478,0.050454904441507,-0.04171465772157747,
GAD1,0.0003348614879532897,-0.06124099585951937,0.06913525714153841,0.0388370899513354,0.0420528710502689,-0.013631631223869213,-0.05483847508776472,-0.16147734727775293,-0.2120842315645809,0.0291509566814881,-0.07627381759897715,-0.043558159547666904,-0.030365197092353576,-0.17168711536841844,0.04995769963581484,-0.1389737948351646,0.10987957582086992,0.18161843441935405,0.04510841430540633,0.09654815451237402,0.005660534247862474,0.05731348701032262,-0.006565841890796277,0.03929291045668235,-0.035980499591995826,-0.010058064196603964
COL14A1,-0.011994833169641119,0.04833576222835115,-0.0017639388602400665,0.0010433524172494362,0.06744846408869536,-0.012023545118542527,0.09553458035353905,0.03398403055425722,0.11662611996412038,0.016112907516120146,0.0011337408620375067,0.10238374395348636,0.061316811052062874,0.052936122820560344,-0.0178631483125748,-0.03607834420209951,0.10930427596078841,0.08468451947347506,0.06154314336704959,0.0971165404462749,0.018850831442052074,0.013108100203008623,,0.12921904149866328,0.14090887775233266,
HLA-A,0.10368655154371967,0.08825985977366468,0.0549489687172351,-0.014972481649738571,-0.05738163055375705,-0.023736340693852876,0.023293191756613884,0.09829552463534481,0.3513757771009947,0.10453780716540248,0.03356692532999987,0.12259526848028236,-0.07358320898098346,0.12541065469363552,0.04692235855428311,0.11362978782082174,-0.05340854842012986,0.0800618871341081,0.1677063259334569,0.06954905248727163,0.052280057873552166,0.012579233121612432,0.1691565500447975,0.06388697945596623,0.06182924133366083,0.00716420944420313
CD5L,-0.06638102306531951,,-0.004349944127243467,0.05438656426158904,,,,,,,,0.02262345562347116,,,,,,-0.04217189863470735,,,,,,,,
FGF18,,,-0.027340672573435292,,0.09208713209747235,-0.01885583124981729,0.029131765094392737,-0.0028451470971246518,,-0.009808642587502175,,,-0.02107036423731398,,,,,,0.02385161230546678,0.02367583327270321,,0.011474088078861964,,0.0023833266567159887,0.040157461353833274,
ADM,0.08185962648371024,0.11450407144800209,-0.07090336816348092,-0.00963077540162295,-0.05798617154810526,0.0752549484145773,0.030430720922201736,0.07939016250934919,0.1838159979319648,-0.11332553820602322,0.02136218409287681,-0.0014576896745741883,-0.09560666383288358,0.07863998409289866,0.015623576355700202,-0.0043325509279058755,-0.20131869883546968,0.16808414844806766,0.09447153410539696,0.02939548897497215,0.005930445157612329,0.04642928718208977,-0.05836256732613023,0.07728876383796758,0.13520115134612926,0.14445053466475133
CCL15,,,0.033693645902956364,,,,,,,,0.0808009162895386,,,,0.07866327380057583,,,,,,,,,0.006044582780067935,,
GNAI2,0.04533922507374339,-0.024117811994617513,0.06919939698897466,0.0022433529426208435,-0.03629223132683101,-0.012521912854535041,0.05953189996944693,0.089285221039677,0.2999467533968217,0.03560556212230781,0.044361396092952504,0.07460568798995498,-0.022068465611903613,0.12368583767472885,-0.03979751427003089,0.07582116908414574,0.03256943441522679,0.061513890586600985,-0.014390556630325306,0.04210198546818012,-0.0329234816555498,-0.04595166333650052,0.022988492140473358,-0.01559114916243989,0.1275374816071416,0.030686689254323985
HDC,,,,,,,,,0.09091294058588474,,-0.032969260348626156,,,,,,0.02751544653330395,,,,,,,0.10890000768056587,0.060790478705026046,
COL11A1,-0.07470733363817254,,0.015289874903396625,-0.016899796671355223,0.06826510167333925,0.003698507116894123,0.09610601534214501,0.2261484067880627,-0.0008050348705770775,0.03757363484569355,-0.005096419204135117,0.013594256276769473,-0.00825427656164022,0.08248885344427828,0.0740409521962586,-0.0024860354652763406,,0.03284345750678265,0.0628441658926581,0.06572804256741824,0.07591540837251703,0.03656177177497896,,0.03520874885698598,0.15883477244563357,-0.005958696915967342
NUCB2,-0.10797940258590193,0.07457852271878822,-0.03383337005807977,0.012918588908246199,-0.08926691244264436,0.002314410649958632,0.0021126533104880063,0.018620544508047607,0.045717082655002204,0.00923815937884052,0.01606547507538938,0.046522095811825884,0.0870197885736331,0.014222378744647443,0.016816482921053585,-0.106437771856757,0.08922280022140014,0.1099734252860877,0.022316192376260906,-0.07864567660392988,-0.0014079746578268522,0.05519655965475211,-0.09348715344423932,0.05391551608415918,0.002138730402764475,0.07170076988346538
FGF16,,,,,,,,,,,,,,,,,,,,,,,,,-0.013221684865362881,
CXCL1,,0.02461551919765259,-0.0386573762940447,0.011457527059308267,0.06112942421317783,0.026877148031483677,-0.005658270328848609,,0.035886219247489325,-0.06497752089056164,0.016735127181357317,0.10892791306337445,0.17070909558132083,-0.0044388836810260665,0.013752845517299085,0.11386004934018543,0.025145633151876207,,0.15313387936852027,0.1216868913586314,-0.10318279413015798,0.03648317838300015,-0.018937083162026955,0.03500539054759384,0.0769487873103336,0.08003382615010768
VCAN,0.10146943370213934,0.02672863936978997,0.025816305248420622,0.018021116750637882,0.0031714263079494842,-0.041899088548066274,-0.009831182014768968,0.23842110516774026,0.29136741364715657,0.09610534466794911,0.04599404560464219,0.027142782985518706,0.10737956191155713,0.16373346303259137,-0.1309915394813385,-0.05582484511094418,-0.1439045098423819,-0.07431996205055999,-0.058222276386799915,-0.07944707512504742,-0.03024931075773978,0.015091288950013744,0.11920576824790598,-0.06544081212173461,0.18015731760313622,0.009321793872050045
MMP7,,0.022756634458542393,0.007432490208977135,,,0.01598408842416583,,0.05480461247804346,0.060482255931001205,-0.015158470929608548,0.026216294637418022,0.02412606588073345,-0.017572644257910344,0.009386763417548676,0.11361986630311428,0.030812386819560403,,,0.1348277205814624,0.1198673765584945,,-0.016518487863813325,,0.0994670196376567,0.10471191813890288,
PTPN6,0.02788161837396291,0.06275354090351606,0.007164469544363355,0.03772773689462466,0.12983570282530538,0.016511958999529883,0.02901328391894486,0.06823492456941102,0.1710349723540948,0.052580408990744856,0.006895786855230465,-0.0022890995904248815,0.08505823161077004,0.11507833411025235,0.1180231278294027,0.03291815004852287,-0.00025088214664659245,0.12315042269923637,0.05155074483124572,0.1011249455088846,0.0545584511223513,0.032559471154561564,0.05361396725661969,0.10841865511697875,0.08531172987448066,0.011193143458904768
PTGS2,0.0670752123832382,0.05591833285579972,0.010924853667647925,-0.019072592958360328,-0.10361751000086426,0.004946599627840882,0.0632143571186395,0.0032410392647537435,-0.24299914436791697,-0.01678448469009976,-0.011897334293647225,-0.07319543213129441,0.07472156140715981,-0.01977456293572731,0.007438155257132872,0.038878049746669384,-0.02272315390515832,0.03313000351715572,0.05132710321044412,0.08261225976200719,-0.020460636660689018,0.011832631729443845,-0.13181027722802746,0.11428516522776141,0.05854452710307016,-0.02959132179042358
XCL1,-0.041570506149420226,,-0.01169951588393698,,,0.01731463524994362,0.05493274719727967,,,0.015886813632213274,,-0.04159823058916941,0.02213844457990302,,,,,,,,,,,,0.0889998587544248,
CD58,-0.043062116950860325,-0.014244127235727011,0.058813039437710976,0.01018183047358194,0.00868530515782304,-0.011773951039411052,0.018118307179698614,0.040472655845799586,0.20801422842736256,0.00014653469268761232,0.021672270517319105,0.08124178252630498,0.09794356417998555,0.12059067873799315,0.03510453551807463,0.15248299699860748,0.06584908557118409,0.18718315138381417,0.11324925464215746,0.09393921639985817,0.01903335090892497,-0.011796953260676505,0.12953418477876133,0.033285744812571856,0.07162227230956551,0.03659557373739009
TNFSF14,-0.04862519169230792,0.0037490274575026974,0.0014543214100683232,0.015147451506607252,0.014516356785326503,0.020048834974570117,0.08374927389359876,,0.12598025214084782,-0.005684573494141222,-0.03967859304651705,0.04449360283495317,,,-0.0740697526050346,-0.03284039443323592,,-0.010805550192140894,0.017205455282295737,0.08784859576625159,0.03232563251647676,-0.03626981215748136,-0.019683075992431,0.034045725916489016,0.0657535055053642,0.01760499759881898
CNTN4,,-0.10977823529402299,0.01846445522247452,0.006486484450072448,0.01940046766152287,-0.010211633845523128,-0.018926833480463725,-0.0671919903582021,-0.13302724338832808,0.017511911294837697,-0.026024011757651767,0.005975615184076513,,-0.07570686397968958,-0.01628349143809027,,,0.05975625329473281,-0.0009187128200745205,0.054154639250274986,-0.09646480523297135,-0.022400188126240558,-0.10445990026799992,0.0388844484840254,-0.015574879500365155,-0.05886388118013649
NTF4,,,,,,-0.035158544301737496,,,,,,,,,,,,,,,,,,,,
INSL3,,,0.05155245660207037,,,0.03720853783686026,,,,0.02031584186256484,,,,,,,,,-0.012936062223251336,0.0006249609928730546,,-0.06039560213502734,,0.022402610772545076,,
BTLA,,,,,,0.017933231504287443,-0.010731720341188649,,,,-0.015255973394455344,,,,,,,-0.009547222453658997,,,,,,0.04172268521135136,,
MFNG,0.03450348660597636,-0.07144152269982125,0.046544823297555424,0.00321745519924407,0.042675464787988115,0.023531942189956995,0.006961965406492434,0.15795491669592251,0.17590711565489958,-0.006388807292663662,0.04301613200313677,0.003584645368365366,0.05752635211560454,0.030901883906942193,0.026954966806865842,0.0963656673582195,0.0004293096893571258,0.024504516663977922,0.007237636624329176,0.06921232104233206,0.02814816251669164,-0.0043667004732834604,0.06210886440613762,0.06470530642087603,0.08009435354923078,-0.028617093038140955
ICAM1,-0.0245800848181019,0.11685684286453218,0.04408247403013046,-0.008348121620501477,-0.015244496296142445,0.028170640203405282,0.06560770946492565,0.12352570426981142,0.25504706716890174,0.03189304273396842,-0.0024699328468624744,-0.009512653475164147,-0.02226970200428489,0.05510930684056069,0.04343774274632981,0.10912373826111936,0.011192250013414286,0.17174449241286693,0.12969352573706946,0.15433249521194062,0.04132684158934949,0.0890511284425472,-0.06654449841826997,0.12715778780261622,0.18576348274127366,-0.029258564799341226
PROS1,0.05602263722277545,0.048042145511726114,0.053786546070767674,0.07549218649866052,0.08880248644407192,0.007769712908391358,0.12246522688383757,0.09235626641904994,0.2651741333360508,-0.02265151904260681,0.04179785066448983,0.030411669163302516,0.14476803583259906,0.06068458197400076,0.03941969626313505,0.04001600509930238,0.07196195456758002,0.30580388680701276,0.12672395565425404,0.00037947964379468857,0.11345562832218328,0.019050400154858153,0.008184141442319354,0.08046593961231106,0.1359893104194547,0.1349235418459108
CLCF1,0.021001015616791633,0.05888077737105592,0.10378110529274352,0.031378089908307594,0.0225514677866752,0.027651679512728764,0.021741265294766044,0.02792584374230806,0.057718654587862454,-0.0005176748120968111,-0.016194800941669158,0.03203014764759313,0.01366808726290833,0.023644089635123332,0.05821212457680587,0.009813092379837067,0.05036273929185756,0.0728417640409665,0.0966023250750195,0.13118716425976928,0.06510755099868322,0.0341529843668486,-0.15099210016621237,0.07072850722797978,0.16891693989378334,
PSAP,-0.07124501465345894,0.012275770784908163,-0.001915335180830365,0.006896444884192524,0.03458213580579983,0.023612766330034483,0.023382663636716355,-0.20578300620574347,-0.11783184113825218,0.05846371366862636,-0.0041745524006481976,0.10560131796113065,0.006567083316913095,-0.09947824495024418,-0.08156682733786073,0.04759748909391647,-0.10123782515098118,0.05730426282125991,0.16819271569303715,0.14058459896755707,0.06330528288769213,0.02482143207618913,0.021171218787208144,0.016197524626317038,-0.09573967370833725,0.12709214028167576
EFEMP1,-0.023679765336954522,0.051418007628494335,0.052146214119328745,0.06734652892384772,-0.0053698326071256125,0.009610386044385646,0.0833447062601097,0.13667607628378822,0.2738618121112331,0.15391957021527095,0.07518800511396924,0.07708667671870577,0.05013386865236334,0.15225021834576108,-0.08658045100395836,0.07335922173265401,-0.007358071321470816,0.19839655428250666,0.15572101632790736,0.11971865129798692,0.0227171944373141,-0.011970197437827837,0.20820597924150142,0.021110180739070377,0.21118545598460625,-0.0790360088077433
C1QTNF1,0.034745588044831424,0.08713093343936128,0.07966385957211843,0.03665069855578979,0.018616160727073047,0.016762446665981406,0.034560419424244454,0.062426446061840356,0.23993487846398712,0.022573689323892896,0.07415967116648566,0.02464604995357078,-0.02535424392086293,0.11649528649924736,-0.033235732916690214,0.10106206161056121,-0.023703489198815573,0.09125072889728321,0.1185464494220388,0.029597411178355265,0.0970946020506712,0.03599177086687648,0.12841195597706914,0.03438791461967229,0.1184152750897402,0.0359469512475095
ALB,0.021249600735068104,0.015026273353354411,-0.02583324340063871,0.07280034521575784,,0.03469146219131268,0.0527297651106232,0.04453510163094133,-0.0013228446539262947,0.019292671209000908,0.00345471579078957,0.04850296878710398,-0.0010196177976464652,0.009216990786497148,-0.007525173495917812,-0.00369899661612457,-0.0267718418180332,0.02408271865738246,0.07328713294667512,0.04740277556709844,0.007044623458720152,0.03803265995463687,0.01710049059670918,0.005946661317525772,0.07986871257826193,0.08716274139970083
CCL13,,,,,,,,,,,,,0.06004299178920844,,,,,,-0.018285678056187308,,,-0.03749637639326304,,,,
EFNA3,0.03784905600149829,0.03559101296607319,-0.018112974529638292,-0.004734073110184869,-0.013191433989663307,0.004739416968408676,0.01488013770919627,-0.06295728818891143,-0.2473164371918108,-0.043142446821162674,0.02441987719862239,0.01447243593380879,-0.03276033062519011,-0.010877641636122757,0.029805354464630226,0.08493418446445926,-0.014794955835871473,0.10516642401196803,0.014320017079938784,0.05422978579447657,0.047051601005591866,0.04970298085433289,0.11795301404501472,0.075062465995896,0.10819832092499708,0.04922717139737492
DRAXIN,0.08537660483100529,-0.009782880816699655,-0.03888272471582416,0.06627813550400413,-0.004053788696190257,0.03525882690429346,1.4162051893632374e-05,0.11166861582655416,0.1843083302071681,-0.07230446893054827,-0.0012953171496679933,0.058793101525736746,0.044567374214104505,0.11197156736287771,-0.02525145292684092,-0.0340392528567163,0.04348351523429591,0.08264151151505242,0.060626248130477456,-0.006242277596984518,0.06593525901379749,0.04398109180304912,0.09427367835659552,0.08510999490537888,0.02467185190878409,0.20653402314269534
RAET1L,,,0.02990702517919099,,,,,,,,0.010675917974986333,,,,,,,,,0.00700584647797385,,0.014734478028578728,,,,
NPTX2,-0.03304642655711868,-0.033769180450211905,-0.009195355334843384,-0.017623566907699416,0.02469341482902149,-0.013861488524192618,-0.038607529656757164,-0.17879114382038228,-0.3000439691273419,0.006573251443010648,-0.02095397190300497,0.10389754395620686,0.06776776934442119,0.12184920819094196,0.043257587006086694,0.05042561237019699,,0.03516001606575409,0.08666998936158242,0.1161181570659241,-0.004906006659401757,-0.01712501424739305,0.05419273777504712,0.015174831725269584,-0.0032423428848859233,0.0295220685033172
FGF11,0.07732317599421705,0.15287084015480196,0.014892502109821584,-0.018625119593063833,0.13448388499506506,0.00363809589236808,0.06142693037568847,0.10363047317784722,0.2550795298268121,0.035225055998367664,0.058000564561529126,0.011174667515454963,0.080507470199396,0.07382915086567687,0.043977424428596354,0.00018861549264784802,-0.16463239996176926,0.12130357856193949,0.028072473364125092,0.03513242276580591,0.04028684779348429,0.08108895991033278,0.17677340687530604,0.13820443206772812,0.16046171576132862,0.059315376199042855
CD59,-0.04718403649134736,-0.04209658517206068,0.039950186328087015,0.0020515188698557864,-0.01959202413670958,-0.0651638518968169,0.01937243159290254,-0.06991312129841014,-0.17790023367832605,0.15318861278144985,-0.011501216996723237,0.0725917014411357,0.003114262847346065,-0.053958642848532766,-0.08275255798428105,0.03987849397840453,0.13283147039733262,-0.028422569409979864,0.09815396197934212,0.08030296011341578,0.01157290303819843,-0.046640357804007625,0.04517476681200732,-0.06122947315086264,-0.049413598123666316,0.10718168398376174
COL9A2,0.0019862982729026116,0.05675840790658645,0.0928135983775218,0.01500177071395919,0.09075762965801297,-0.004310760772359142,-0.01166444315280701,0.15229266286503917,0.07284472379422552,0.03508931487503429,0.02121414504886005,0.07750661957444872,0.04677566002497601,0.12284339072697628,0.01619960656624152,0.06953114160844176,0.1101389209258942,0.018489580203435368,-0.03247121774467673,0.015245377129599755,0.12158451575900206,-0.015440928536318017,0.1228895786791579,0.09454947233825528,0.06887396435989165,0.11253261152692486
DLL3,-0.06428669209018771,-0.1430803755981185,0.03677948039837551,-0.029068124186201517,0.034672342919125014,-0.030781053052184853,0.020562764262869192,0.21413627975587193,0.0815722389470097,0.08140702791853523,-0.08676685085561002,-0.018280960884284186,-0.03504599626918761,0.03278157035104344,0.006187653488515939,-0.030051994878718437,0.23563021065300774,0.015752606034454095,-0.11402069974279168,0.04097486119481418,0.04094291519956742,0.04333314690954345,0.09552372688190945,0.04571812933818189,0.007478380807987336,0.030817869410644513
FGF5,,,,,,,,,-0.008580028706047512,,,-0.01730351290642192,-0.031365905009715964,,,,,,,,,,,0.06654984718537914,0.046770901809338794,
LIN7C,0.04922606769963436,0.026568581370520945,0.02490413743380117,0.025347599367005137,0.0555573321617432,0.0012246050287672034,-0.022558835764354142,0.059152652334618576,0.10360799814024875,-0.030116632664689058,0.05862511377317494,-0.022094534396136987,0.005112487977588629,0.06700586681887498,0.022222821367391867,0.09826683079893501,-0.061894658774605225,0.09608718396273616,-0.04427516981935402,0.004292751458752415,0.036936941274971026,0.047584632266923034,-0.022460923964080334,0.10747221383593544,0.039761545991876805,0.13664036952332245
GDF7,0.02737582799217078,0.015191549757516926,-0.04591999331142802,0.016703705537355125,,0.04191683445001367,,0.045364363703979914,0.02261334286485661,0.06571149165099285,0.01157563765647638,-0.0023135871492307165,,,,,,0.0038935465295607146,,0.024152920353125034,-0.0010067860089420148,0.0375368746925589,,0.05346109208920849,0.03086207077963699,
PSPN,0.07672029155035216,0.08114987246264811,0.025600640141898577,0.046241863716706924,0.035406792458215076,-0.0030052219576877626,0.013576010752042837,0.02308873407013849,0.040117349985304675,0.0383927453224439,-0.009621008721200499,0.01027484887479033,-0.010849993838556601,-0.02268995908680564,0.06619736577739703,0.017750528559887936,-0.004472831732522076,0.020738118255531884,0.015469573058016712,0.050256625148810276,0.019675918405696425,-0.010372259979175144,-0.019525040598003654,0.11353806922338444,0.011465959285585055,-0.07820404792711963
ANGPT1,-0.040224427773113566,0.006298941826370811,-0.0019188303675310363,0.014516145836796467,0.06082356746933989,0.011418425906767907,0.015112957531401704,0.005142749655645226,0.19046288941991046,0.06997174714324467,0.013946725528553855,0.007113482003161717,0.07915083256201733,0.01076457176037362,0.026605104773997298,0.012922982686191818,0.010431182333030193,0.0025866474004366765,0.040524498399352946,0.042568819480417165,0.06181904744882665,0.04036950583236723,0.0762929732831471,0.058429671684667776,0.01885463717507559,-0.004360937006820509
PNOC,0.013968743790045434,-0.0640648550150761,-0.006010737473884642,-0.003235966327074863,0.029053258649077412,0.010549147044826401,-0.08062510092834903,-0.0908772722254948,-0.24462280878716774,0.005622990406053223,0.0049283034733775604,0.0461309288916961,-0.06573982939500382,-0.060217394430180635,,,,,,0.02611965754426587,,0.018850678542890468,0.03297538117387929,0.05880088299275126,-0.0032042186889472994,0.08799952521828967
L1CAM,-0.0010510801229150202,-0.0749430835084646,-0.02933999983089573,-0.032096103724363625,-0.0013222712427480936,-0.013220987307228364,0.0643583383075154,-0.012164510110137396,-0.164209651755366,0.024791154676621324,-0.03583692452351805,0.0055026595014029,0.024131294177844508,-0.1678084765686004,-0.1332326085195088,-0.044309050676287765,-0.04193292229593986,0.06714503759386134,0.0548037958844118,-0.09806066992187301,0.041029092285104075,0.09327661400419927,0.005685388712358335,0.03241398735290101,-0.07288375788449493,0.06869049858876249
APOA1,0.09310465101869114,0.047095025459845404,-0.0064946784451526815,0.0187550956443641,0.04897341179726338,-0.03511803753907958,0.009796393179873707,0.08446954419702858,0.07027898513093431,-0.00038968853630247797,-0.030061803945539808,-0.016701795293825997,0.058874709726919244,0.049710337278591574,0.04209864074984978,-0.01619202573572448,0.1348252548483011,0.07907639947128048,0.015477453169273526,0.04564863674280665,0.10304420002854005,0.1022145474797117,,0.06280519001169857,0.0559736741567034,0.01161950564635554
PSEN1,-0.012447990981757579,0.01022022891218776,0.01603450985716269,0.05644229701042542,0.08787059912777602,0.05049764519713126,0.05534346407472576,0.04945689533992838,0.01760737761631859,0.032174137561407225,-0.00017017665890603322,0.03997352352600587,-0.020125249272107227,0.13449638297838637,-0.0939805602188942,0.038447956999992317,-0.010225424535685472,-0.06150620253553565,0.08774660384378877,0.12398100183477537,-0.016034307666253637,-0.024304637176047018,0.07933124460450251,0.02288105581856596,0.11761825786132593,0.06614245512029479
CALM2,0.014897731300380029,-0.07517963420473027,0.008726721845181865,0.021550907898106177,0.03315097726601249,-0.04933741053162588,-0.04186148391580518,-0.19995765844516813,-0.3549209107218199,0.05012821747097196,-0.08385826735576744,-0.09588623412658809,0.07150604720433469,-0.09509085458083061,-0.04434620488026049,0.030092900050031696,0.017463735120561673,-0.0842993950413974,0.018862709677293595,0.04067260902493104,-0.0042536551282073756,0.014900519827448005,-0.08610062928436614,0.0253067353604417,-0.09037899151426834,0.011493697148745692
CLEC2B,-0.013936883296184763,0.06778285308179213,0.05430686988466053,-0.02278064901080559,0.027147912039157472,-0.03884967972691312,0.03980253423286728,0.08260980095421394,0.2268361727674125,0.050030372143363644,-0.02224635893556132,0.11455183437569018,0.0413376126966665,-0.018980329248869082,0.017364969843473542,-0.01568516652835115,-0.08178749129755,0.12450220096479793,0.15361367118149125,0.12986882290987242,0.04564707423353932,0.006449529914902873,0.001838228228360368,0.1929038147453299,0.1120767732882959,-0.013230086947220575
NTNG1,0.05370496220475332,-0.10008578479555423,0.06599378336603715,-0.021435699800415646,,0.035303063402782144,0.020171015300901467,0.032414718833075964,0.013050870386214714,0.029819573141533558,0.005453397525340225,0.034214024420230325,0.03372088362016422,-0.04093739469096882,-0.006854044461651657,0.015426960301840927,-0.17117804355868932,0.07859470438799536,0.021199299869220027,0.03339479456482047,0.024435359268818305,0.04336077277511741,0.006010399173148883,0.12919465558237206,0.05833810376423974,-0.03342956150765253
LRIG1,-0.005688337730786164,0.0014075119788217662,0.035660936245267685,-0.0006133556102570779,0.03648799975905089,-0.011613843991983935,0.03913685890152087,0.02048583549243605,0.24004181072414624,-0.04046919549454659,0.08540014284547652,0.01292535196078392,0.008240077748562473,0.14559518263730842,-0.09328536912825235,0.004802387701151304,0.17029080648675696,0.1795512132730188,-0.10171856826994685,0.12655864188669227,0.049205972345664754,-0.020345228694676476,0.03771398139467334,-0.01982386542020328,0.14363925520952078,-0.030504187506639652
CPAMD8,-0.0028547546966293715,,-0.009982138357351364,,,0.02543571421740889,0.01361115996220168,-0.0008853287718608333,0.015002194556578549,0.049866460033259195,-0.0013085108880510519,0.07585907553768541,,-0.012894322441150671,0.09618974003220584,,0.0976005024271754,-0.0038748746301091016,,0.042703788056300034,0.026662805636635627,,-0.10584230337699715,0.015432478484614995,-0.005349487293025445,-0.03422877674570299
GHRL,0.012832970199242922,,0.042678000927546325,0.05283755524833755,,-0.027905829170635384,-0.017034795554121802,-0.049092389934219924,0.020141848311392752,-0.022740032195900862,-0.03522934706195078,-0.04491326612168789,,0.03780441025131273,-0.03904429301433786,0.026425002323065935,-0.043420234033059335,0.06933214665847007,,,0.027103693803494124,-0.018841119580497813,,0.0356424226884039,-0.006089868564161097,
NPY,-0.00045015822600654733,-0.017836175446158682,0.07170755936987032,0.06252528614529768,-0.0039265461509489135,0.0021997971827729247,0.0243748622551847,-0.20943871025030014,-0.16367715535252564,0.04499253673094016,0.0068378742681099855,0.033781330315667636,,-0.033101364680644736,-0.03084959530444685,0.10952327127937346,,0.04721604974202243,0.11004863078803029,0.10032265735492586,-0.0020760220355187354,-0.04059775237357527,-0.04485244422250224,0.03111664847031996,-0.09096758642559884,-0.11305823883572845
MMP2,0.0333714189935777,-0.09237065873173951,0.09645354471763146,-0.04426079309771593,0.056224485740572386,0.004537955254372067,-0.009890519244299782,0.15766435199773868,0.2515060293298977,0.08282795395560295,0.0001678823264008523,0.10062230036272872,-0.08773299194553623,0.18320166748389752,0.09917535297231733,0.13744545094468294,-0.03845330114887751,0.10829366967021745,0.02666560672354156,0.040429846242898186,0.1067993516022249,0.08522281463131494,0.11963321028902503,-0.0503635814624772,0.10284028502817988,0.03721326319154341
LHB,,,,,,0.007583415162439121,,,,,,,,,,,,,,,,,,,,
PPY,,,0.0026253492736558206,,,-0.032093560692415674,,,,0.005568872494666045,,,-0.03055398569248723,,,,,,0.05792678192857516,0.08885025581999806,,0.03941579422057166,,0.015131402584707403,0.06671420155768208,
ALKAL2,-0.005095949818256201,0.016370424434758883,0.0007321746213812541,0.01918343198885926,,-0.009843816640671642,,-0.03101026893167202,-4.334004421818635e-05,-0.01405618770273546,-0.01433420527461504,0.03017222473362492,0.01541022177141308,0.019268498154026925,0.0667920823378687,-0.044971234027399797,,0.08450247026119753,0.033298534960047456,0.03193428126995511,0.026616942432889368,-0.009221196272226739,,0.005109170297740196,0.10842958369971613,0.06737266726588184
CSF1,0.039827705028728656,0.11207137283175983,0.05318681468922229,-0.06712666655193253,0.0499910605312978,-0.028766126348673104,0.05794116429958459,0.1704183765459408,0.23466189010917,0.06045247385854185,0.07108315376985869,0.051543989646831496,0.07728385188322862,0.1516828738578642,-0.03312074465126672,0.12546603588063646,0.17039076971133488,0.07283829954463529,0.14873157293142084,0.08943686478761749,0.0017675686665628318,0.014705617691725735,0.00912289164910471,0.049309355341674355,0.18291824076714883,0.04986569769744683
SEMA4C,0.08933846637546551,0.009074616247094911,0.07469718785706063,0.032801005309439385,0.06351969899362782,-0.004369059592597242,0.03890448570525443,0.11160394691512913,0.07618686758181205,0.012771452097479475,0.04411150337673608,0.01789935924630691,0.02969440118843713,0.05774364459446259,0.01478659459410818,-0.08887097671697056,-0.020122380285562857,-0.004550688341563551,0.04068861898114752,0.08330598757755626,0.13446036792424618,0.03466926813458753,0.017795301085536275,0.08587257125030315,0.07062088312304832,0.03237550325639681
BMP8A,,,,,,,,,,,,,,,,,,,,,,,,0.04367147962508532,,
ICAM2,0.05187495914931227,-0.01133305988642526,0.03878042812862725,0.0699008549769385,0.006322618351757476,-0.00021801952146556605,-0.01490202960762092,0.023839809617121455,0.16598589243873438,-0.01499432129189512,0.010257650595519507,0.0926717121318955,0.13729057079000748,-0.034413494364746285,0.06729674296953989,0.12302005375414923,-0.0404656604795884,0.03261507526438691,0.025916317635552622,0.08233002277717873,0.007776630376940995,0.08173436147021196,0.049504806985602605,0.04570453801244548,-0.13450555489287921,0.007863729917528673
SYTL3,0.048383376489399915,0.0001639509370098172,0.002034056692006396,-0.028321301003118287,-0.0021843524209738344,0.003360733270388251,0.06018604967627675,0.005680292979849344,0.18652589149523585,0.005157209176738425,-0.015088104410640285,-0.008165723779682098,-0.02573775595772411,0.009838281658400198,0.008350248925539027,0.02843081119436234,-0.00933140816033276,0.10819978334574168,0.0653848531791546,0.09564290983135772,0.033195773091793813,0.019287623913757938,0.016425165659446586,0.09172264287336332,0.04779877593160541,
IL1A,0.014961011120337035,-0.06331033054224951,0.017747205065383645,0.0008064932645234434,-0.04700193975527027,0.023352828975454737,0.03903549258168067,-0.05474555481831777,0.08959322643324812,0.06631395251854674,0.03536435331155578,-0.010009717783079798,,-0.0036459097587555568,-0.0179940350019012,0.11516234859352659,0.19080757429919712,0.034239775453832326,0.03479579561632177,0.08687338020541438,0.04110368402837258,-0.007669888451593583,-0.12311011171901837,0.06853552507696437,0.0275211039306138,0.07249896977950551
HLA-G,,-0.052636343089093186,-0.013590731284522197,,,0.03304056144322128,,0.003913788803671043,,,,,,,,-0.009181275726534665,0.06885831478685164,,0.018354110151050346,0.07629059124784851,,-0.03686439440044357,,,,
PGF,0.06422608871603137,0.014137325348410081,0.030564377234297307,0.061379564925460026,0.009316910941738253,0.017233825108555957,0.0599196649602095,0.1422494208704486,0.2746509208828394,0.02345492850117337,0.009758565039448658,0.07561867692687776,0.15887021711546345,0.05342095956091197,0.0417080557186206,0.04594465985080439,-0.13441050800993173,0.22978163624824108,0.05304741708873007,0.09955086951232796,-0.02469271471060541,0.06529113502724364,0.10359044903505167,0.11239770334750061,-0.007763998339379983,0.10540587916773819
LGALS8,0.040746835486398354,-0.04457246387165081,0.005999441076899761,0.04198760466086712,0.051946386756357356,-0.012914150915002788,0.06657588194178977,0.016013988081587716,0.1369920295451721,0.01405262640746707,0.027340038782010384,-0.013782364229598026,0.08459286339157866,0.033493519893821336,0.08671540060249888,0.011210421059077706,0.07135770157796748,0.1652795109761664,0.05461285766019397,0.07744458377350392,0.07732415401790538,0.016904993620462563,0.001696290327907938,0.13890205861497296,0.06203211624971353,0.03765551875602436
DKK3,-0.010945508225489672,-0.096461736265805,-0.04275579852961243,-0.007716475310319448,0.02435571072132083,-3.229035435009691e-05,-0.04194183496948875,-0.253529461582154,-0.26380354581025856,-0.0014989246613524457,-0.062747391959274,-0.061173902596586484,-0.056146220207695864,-0.12188720830677437,-0.009291198683811877,-0.03616435067529423,0.09086673829378891,0.01614488498613507,-0.029331351086878715,0.08862433802899658,0.11093215972655932,-0.052757712195691905,-0.004913970244133778,-0.014811527531693618,-0.21320826762147982,0.009800059763245484
COL16A1,0.12888991949293074,-0.05988600183806854,0.06101416698726906,-0.010641600927764245,0.05250287360944519,0.06093901755154879,0.0261606337636559,0.14142687553571975,0.11924553447076537,0.03859229489386995,0.007194449094602661,0.08191917044727026,0.1220832224520336,0.1771778569781028,0.03137291857474805,0.11707513711423836,-0.007692193823065401,0.06865563423811213,0.06267406049912935,0.15611065969971089,0.08617497640947079,0.10686432676861259,0.027660916975859557,0.0948603232299617,0.1603066620317184,0.17363374386594524
TPH1,-0.024086737657287475,0.028265384842415694,0.042022621025341135,,0.032076761967649546,-0.015112785531011284,0.0004846800932821869,-0.03140540928257737,0.0748237990395513,-0.015642353266119798,,,,0.043272505228568736,,-0.003195877691200883,0.07219030494054955,,-0.026160789355889284,0.09531393795005697,0.04634149731847704,-0.0001562109571791212,,0.08267568444853218,0.04910188273833437,0.00011651251188484052
TNC,0.03023847163330998,0.10460058728047568,0.09990559711559695,0.0011157980866651556,0.007468473584501184,0.006969398655601114,0.0617755177930258,0.23435919688563703,0.3380336833153315,-0.05535179503526258,0.0765343725031578,0.05462682922807478,-0.11187303838286541,0.19003033348277704,-0.09668847240731508,0.05613650966118136,-0.021464251789622753,0.18065689665118706,0.1561578127473894,0.03981605307324082,0.10761878617320249,0.07129717672435609,0.10956488867375831,0.0553244288388632,0.18158704305450205,-0.01205723006682114
TNFSF9,-0.02118712716892326,-0.07505776381655212,0.0019228965855337642,-0.00782356292775092,0.03557868840777004,0.005573521158281892,0.004419709387836502,-0.025145710411692498,-0.11616755210173449,-0.010592313291172474,-0.010210006660404508,0.044294788383665885,0.014336416177742353,0.001526900762766629,,,-0.05535464276161935,0.029368876400854487,0.00511541766125948,0.023296981340336975,0.07977576139772882,-0.005248317669102303,0.037364895772685716,0.04078319337173436,-0.014686489677716073,0.08300174974715482
C4A,,,,-0.0249430095709982,,0.045082676137526694,,,,0.043862039346073585,,-0.03761212037049748,0.07585492809487923,0.04057996480572964,,0.028586736942535683,,,0.06475112618981622,,0.09131750055872254,-0.015931802543546248,-0.01694448548769797,0.02958499141462975,,
CNTN2,-0.10809723261497368,-0.06087141696280927,0.02761985412349935,0.009424874370350292,0.07877934577179141,0.030578596617212198,0.08338922087060548,0.10791418246086641,0.00699340332842082,0.0628878523743739,-0.018118058882486503,0.08355314550047968,0.02701770342513691,0.12821197468603357,-0.12783677259446505,0.08208221446409615,-0.036074011820849204,-0.19968367088861969,-0.035707215779856014,0.028033167980780052,-0.026683213909931773,-0.018961129813548902,0.028555925229276462,0.08988842613898823,-0.11118198359905933,0.10389326522052256
F7,,,0.025548356611027046,,,,,-0.040742407545798984,-0.02056037533080934,,,,-0.01775362972473155,,,,,,0.007383519886800361,,,0.055220071659341854,,,0.015491352483661371,
LUM,0.1055125835127495,0.04961361969246859,0.0304864952487371,0.022467846755678485,-0.02757264136539789,0.0065176492748297635,0.0048797246020326306,0.13483843109106816,0.28267102594807886,-0.035387201868938074,-0.005467392079408512,-0.026433346853481088,-0.09224309826086048,0.03849849067222316,-0.0015011917345166771,0.054785571689756965,0.04552093196858882,0.12823281400246841,0.05570790696013463,0.18174715248539838,0.05515321646200855,0.04580922854080287,0.06780085130181013,0.016115960029717102,0.11817538167455881,
IZUMO1,0.07095675659220166,,,,,,,,,,,,,,,,,,,,,,,,,
BTC,,,-0.0008043565560006441,0.020890651355666732,,0.002910428886219829,0.04336557379856781,,,,-0.004511746664237999,0.05958421643431169,,,,,-0.001464332958399429,,0.013831066701868839,0.04672926518015322,-0.061750774527998674,0.05982529130440348,,0.08895516975802334,0.05038143292511577,
APOC1,-0.13229830218798505,-0.010236968073198809,-0.027028741835947123,0.04214856017131683,0.004002080469717536,0.0005276535891800103,-0.12431696992631491,0.20334989957361257,0.3601238005464074,0.04264605338800812,0.06048211068429249,0.017639057454291,0.06771704443042734,0.10791282126723044,0.024628520759455274,-0.03778617067732167,0.16046371191259085,0.11535689563591306,-0.09714681750672366,-0.10793095920525451,-0.013010936773980773,0.016401664920995238,0.16009469057366738,0.02054755453079262,0.03272612585544578,0.0005716479125271707
PKM,0.012613878612635842,0.09877598355051921,-0.02339637038117857,-0.034601888924064544,0.04267184317498481,0.013788088435090043,0.06221908568112709,-0.09831558840912306,0.11189026289751293,-0.1371793540827475,-0.08734749581663948,0.053281023248539686,-0.08788010317950451,0.03340004491912106,0.04300237890624265,0.023048543202973826,-0.10890109622945966,0.17484992012041004,0.1381886260178179,0.009938862855667703,0.08421538346038632,0.03406011866317525,0.1301315031281951,0.06306701123395712,0.10839977503453917,0.05957040311191023
TNF,,0.0368695021509571,-0.009763001117107218,0.06363561888305125,,0.03975791322332958,-0.05031139778126296,0.004330865882641253,0.012335297749552072,0.011839330699669455,0.018862098926694902,0.04395592681892933,0.036458294908715265,0.04822693884137408,0.06382899209994322,0.10425548476263281,0.19747122594185743,0.08218695517633245,0.007580591051535353,0.06835013167114298,,,,0.09836308083465063,0.11374078424296416,0.00017335783269635055
GNAS,0.11017973787872117,-0.13142740385952023,0.012838848522091018,-0.03904409282480993,-0.014778128118981864,-0.05004237183701228,-0.08198833378382968,-0.1517834589800557,-0.24289834896377438,-0.04931387024767728,-0.023830790788512607,-0.04930500079694774,-0.12103054094407412,0.12098692379465306,0.13190882698540538,-0.044541895705746216,-0.05370738007519925,-0.03935373030666836,-0.003935673344559915,-0.06392182859385627,0.09390645644219597,0.03597145992898112,-0.005182108984793202,-0.03665765694312425,-0.1655579734551818,0.013514467473101392
BMP8B,-0.0010753318660689263,0.0314027660284068,0.04148073744291753,-0.01157947082485427,0.03160551810428814,0.039028302334116555,0.038936116764954884,0.16350580040482976,0.027437228743108204,0.014404188937008056,0.03485272925990832,0.029813782864313527,-0.02295892477021394,0.0016541495002805927,0.09470477856600737,0.01994764344069168,0.010708735575628086,-0.00800349906070017,0.0507575421511323,0.06218778201324211,-0.03142542331939264,-0.0007891879107414646,-0.023040474810421183,0.11957467908943516,0.0458766430039989,0.11778195770710452
LIPH,,0.023299002158184173,-0.002915190682575297,,0.01760034427224726,0.014846048320460766,,,,0.05568691448291172,,,,,,0.007733828217281366,,,0.005514624624101807,0.048718490735187935,,-0.0161710758100443,,0.09710641170097818,0.10411063944243482,
CCL28,,-0.013207909848658637,0.030786142015914068,,,,,-0.04956524560123128,,-0.015088122062547284,-0.0016967828164857002,-0.020146192664497607,,-0.025514065991198275,,0.008407338120755552,,,,,0.05073519144517524,,,0.013277820044823977,0.03779431751225409,
PTPN11,-0.003932777392543896,0.027422935718958864,-0.05147326952098753,0.02977148985882911,0.1753612948558252,-0.03563603230944485,0.00393171760802483,0.020773718411524863,0.054756421470001246,-0.010033475856614665,-0.005693031463762714,0.031247683521739334,0.03917511686507105,0.0072173738303147475,0.0023359687578195423,-0.06346922769227169,-0.17335419479119843,-0.16904244668668084,-0.05629904658167546,-0.06278646604560606,-0.0506654842346626,-0.06824870985504063,0.04230760306866707,0.03614088409032515,-0.08898898656778341,0.07994053591369263
ADAM12,0.06117781098017215,0.09073114964219034,0.055267973273398226,0.011652609529787953,0.04832742944200857,-0.03566388346133432,-0.012592060441629195,0.10839670904784937,0.21647684128388167,-0.046475142295825486,0.026298013590380004,0.053607854565148085,0.08568304598433694,0.09388013233149252,0.17427007683121512,0.10024666318196632,0.014807567310841232,0.12658646193471704,0.0946675594958504,0.0720626052219043,0.04905814848178808,0.01658417348489121,-0.10300535219123731,-0.009927407942655366,0.06705336681447334,
EPO,,-0.059503782779526046,0.044296130537045855,,,0.0219918101234886,-0.012335446552745766,,,0.03410302295317322,,,-0.0241031369741095,0.047073432938657546,,,0.0044259613184941754,0.06790643133239613,0.013385844866812718,0.05398299538963668,,-0.0387141579300151,,-0.019739224224089,,
EDN3,0.05610971412911226,-0.006371601564680268,0.04410314027946198,0.009385179238715843,0.006598412782933625,0.03378862792228907,-0.005009558721711602,0.03471738738940834,0.027837788659748654,-0.0016555108259931448,0.03472792963687327,-0.04945437676542248,,-0.044351964281470944,,,,0.018002594288306233,0.03385839550991793,0.1478417655162811,0.09611975228073752,0.012293417720052269,,0.05344959804735313,-0.006208909172084926,0.19034993197797567
CCL22,,,,0.015410995570003128,,,,,,-0.06382130309998392,,,,,,,,,0.07645397538766018,0.028714317812215475,-0.04643354065116552,0.0018308088748159401,0.05906758524666549,0.029207789455147952,,
CCL2,-0.04120160583666981,0.11128434427985329,0.12276391948571871,0.010764188734923512,-0.025418324045736084,-0.012124354285482634,0.14061357747572195,0.027801473234418814,0.15516107274821753,0.08963594346379843,0.07534982642650406,0.08810687738797264,0.07321147153941343,0.10299930009527761,-0.06755434876976729,0.057031868887880414,0.10964960932563375,0.17066344310878695,0.12680361637711504,0.15518532959453235,0.018833154602339624,0.035212607471328455,-0.18314933309873652,0.009649344425312989,0.18532093366741734,0.03678196154818823
DSCAM,-0.05569700381074369,-0.010517179277711751,0.001976829573056326,-0.02270367967922834,0.08320443958987152,0.03401400583417757,0.016167348698781815,0.11161117293260131,-0.001467450830969869,0.01098647281226988,-0.0030586506167702915,-0.02568069935539845,0.06310842724357602,0.07951127556371265,0.046536658628285356,-0.009205792307998074,0.09035347336241947,0.03471022071837841,-0.04086224714768121,0.050024189078009394,0.03148209147069471,-0.0006946104787347921,0.06963796870814119,0.07618462454607097,0.1364769959039359,-0.050790303911415376
GPHA2,,,-0.018990684299783664,,,,,,,,,,,,,,,,,,,,,,,
ANG,-0.00017832180448330934,0.10671794068176634,-0.01329814822139775,0.03798514593871607,0.014033982664152145,0.020234854532257075,0.017108041592405355,-0.011354164055948203,0.1374526088776264,-0.07567172184986574,0.0064381084188943685,0.029508200990842653,-0.034087474511386814,0.0813853388567475,0.056735076089127465,-0.039720506317712276,-0.0402533968771057,0.06406070539961856,0.10368264636680963,0.07203692020753194,0.06600609843461193,0.10435665449909216,0.14233729060385752,0.10893609669913763,0.03071478474031778,
FBLN2,0.03556486077850971,-0.024074756129781934,-0.061435435315424655,-0.04165663690688162,-0.08419289537621372,-0.06924041032660634,-0.02434354298996908,-0.06325135851215821,0.04299313768815848,0.05974044762143337,0.021229543143943305,0.038054022397149966,0.060293922184435154,-0.030485114337855782,-0.003244392305624568,-0.025970627492925558,,-0.1107297322343257,0.06860455636083261,0.1420648974047988,0.014836616401696196,0.10708411465560713,-0.0023292953952942282,0.029623084282411505,0.01796439662780851,-0.008127861966389448
VTN,,0.034652252632728246,-0.04529418429578282,,-0.00036225374046808755,-0.022236418141428214,0.01445422555602033,0.03757669434446324,0.07790048334935137,6.938573866183069e-05,0.008019209367872832,,,-0.057035448459675384,0.017842158552375625,0.037588712960142,-0.0653721410800466,,-0.0006028508855385644,0.009234880497416382,,0.0594869515938615,,-0.010059677848784546,0.02788089105655423,
VEGFA,0.09042682746157053,0.10621207716877511,-0.0783888649270248,0.021423620355523015,-0.06953823043291797,0.05007768572769317,0.09342903714346183,0.19195557203892197,0.1782426150620801,-0.1278624145265941,0.02573148074445518,0.044705584529289556,-0.10918034100573008,0.09580361031718128,0.18182974906856222,-0.0527500985644614,-0.20916852522729207,0.15200261751693356,0.04983611278337548,-0.031728518071858926,0.0639331423697906,0.05250139828204506,0.05399586106857232,-0.07832133352929471,0.14224109661991355,0.13658091068340117
F10,,,,-0.008279045290809226,,,-0.0006548229479986967,-0.017717399738578898,0.11447694381783319,0.016035951984008905,0.04385977860263616,-0.033576738744640955,0.029668488423208902,,0.02196219737800501,,-0.00780631926937318,,,0.019764241366823265,-0.007714446152126995,0.03160026780787448,0.09529817509360304,0.0010739941746867319,-0.02619589246852658,
SERPINA1,0.017268360355725206,0.04373007581454623,0.08715467874591694,-0.004967818089239063,0.026938352709821423,-0.019220582890546633,0.08093369835600277,0.10660010660585255,0.2539771775622545,0.010138692588886259,-0.001640939431210457,0.1019437894470025,0.050689958630346456,0.005479133583753662,0.008492990323346022,0.08376817726909222,-0.017635141829829365,0.1152903640925926,0.11238488811781039,0.050910150838596874,0.07812960744537986,0.0073692102920327116,0.09640748799011244,0.05670995521696694,0.08438404813367788,0.002646274428758905
VWF,0.13757218756672082,-0.02409546071690332,0.05954721784080861,-0.03732428134123428,-0.047063604378073616,-0.009555544031186133,-0.011612494661428944,0.08362786338823207,0.2814649824846388,0.0520115993430317,0.07422854726859844,0.04611290701350628,0.09087955469324244,-0.033559498080299385,0.05635298104199242,0.014754207173393447,-0.0008462990223584728,0.06599721848746068,0.04823016697500387,0.1451744334989956,0.004408343024751412,0.03745753668619063,-0.047119128596892795,-0.010432718210503946,-0.1226524413340095,0.06365546216862863
GDNF,,,-0.00698436502227335,,0.13718463673510353,0.028514783889086206,,0.053291949335982115,,,,,-0.050749952376032276,0.043580517729465286,,,-0.049774715882199345,0.03294198833045525,0.03917822214063207,0.00038776086427189804,,-0.0005262049194309108,,,,-0.01697382012041587
VASP,0.04124413726706714,0.06881891541884987,0.07909435126811375,0.0449556443789995,-0.0011933318959397,0.03803561656403148,0.014276675246831514,0.12414626104342963,0.22067982906567427,0.03778571408681924,0.006416464686031087,0.03525948696794028,0.0793236306439395,0.08929362599629499,0.06887529425622813,-0.07126423146381382,0.03625686354085335,0.10957797336120156,0.06619069097616653,0.06081856958990598,0.09600611286976884,0.012593333129627658,0.07591253157286258,0.080346945690273,0.08593662044254731,0.01592617303878646
ADAM15,0.03547859365862739,0.023612667513636026,0.029154735270957136,-0.020274587354968482,0.04425823872045055,-0.0024476158492985536,-0.05113176850955458,0.18860451072044185,0.16730042218532795,-0.0029033720115093143,0.04275658077106566,0.07649495125765671,0.023162327326674947,0.12018419674994339,-0.038248374163037384,0.019345619700250366,0.014657572738222558,0.09331732165422604,0.1326561919924684,0.0792753663969028,-0.008901687932643421,0.0030803107707154157,0.013779140022485335,0.05289226813669443,0.09041159241494579,0.04849034439615563
WNT2,,-0.009839268121928603,-0.014538456985329334,,0.044096144960739575,,0.0036019852062203267,-0.08059677230760394,-0.10926816901753464,,-0.01662796555789131,0.08478647743536134,,-0.0626041156937353,,0.07554737368878145,,,-0.002580536576399513,-0.01796441807558009,,0.0023670154612251033,,0.09061558422768907,0.0481554689751685,
CALCB,,0.055512575813683324,,0.006843552234339835,-0.023326385401175754,,-0.04668206164196841,-0.035001407799018835,-0.02871271728652495,,,0.024332154284882775,,,,,,,0.027364574258269523,0.05541692194488913,,0.040232364843808835,,,0.1205778417569326,
OLFM2,0.01597006225882264,-0.058703803282935896,0.10259846354658436,-0.007400972545463104,0.07081993771989564,-0.06580867707425417,-0.03228135136066336,0.026744947517065368,-0.14985475617594288,-0.07214074749524906,0.016039179271139938,0.07674986400887208,0.09201038388278784,0.03719126977268335,-0.03422558458773469,0.09787139629721435,0.004563227827435233,0.0546092857772667,-0.08731013440617677,-0.12486600963921121,0.03279242032185628,-0.027446464579195556,0.00030040906242834707,0.071808430505547,0.07927422917703456,0.024640742033875875
MFAP2,0.043854090271261394,0.022823414022554736,0.09919935135583986,0.010051980235081909,,0.023784905936892364,0.00796365166806277,0.07263824069361129,0.23851007393559573,0.02054884011617522,-0.012529964868985383,0.028898903076691098,0.14160639206267625,-0.011898459992875879,0.11328332012016792,0.09364452226280758,-0.024467533673303326,0.14839364178120856,0.012740584226876801,0.09635518736502341,0.01522243922577469,0.0753321935098542,,0.13607907011008746,0.07486494364075567,
HLA-C,0.12123944990120379,0.021228738172546155,0.043739177891971674,-0.028263084006451614,-0.0151390383278452,0.008460734657613572,-0.006259613444739472,0.07258072929108986,0.3542458791896405,0.1051965340372794,0.023401009666128996,0.16304322665048834,0.06853142911872456,0.13389797977907378,0.09931012767926344,0.06476114867112771,-0.015084708576291128,0.06788045773329875,0.1795331759713718,0.07037606590438023,-0.007647694756433348,0.040431855045923795,0.06684751843489407,0.13136238511803733,-0.06744924050042304,-0.054056671801079675
THBS1,0.003036227853930602,0.08971217049255233,-0.011822944996521981,0.057137349210149166,-0.009327605504063027,0.056779277477446974,0.031122726147696726,0.10561314619574884,0.10248934550078931,0.060491187207643404,0.008089905192837109,0.1470640081212016,0.02528468863013404,0.026427386752048025,-0.0043014192273060185,0.08638346924880137,-0.03151829955781096,0.16242341752146158,0.055164528951766566,0.029436917535393476,0.04417250376949252,-0.06238807534281893,-0.1073288831517279,-0.042224789970633544,0.07265678757687218,0.02898579155826181
HSPA4,-0.0020857960876643758,-0.046206368651071264,0.005273504674718661,0.03155415499982778,0.06559260998296614,-0.011031031287914396,0.022320648125986203,0.1279484958383635,0.0026828875531712737,0.08542228340529968,0.004167510882130556,0.007186275367831788,0.04965376330933009,0.12486542446197219,-0.011134551746889218,-0.046056547163059486,-0.03605776435270956,-0.022278358949355676,-0.03269500202298314,-0.024526074987205746,-0.0638286107872846,-0.02373793529532481,-0.11700864121993602,0.042712716509610844,-0.017564146642534726,0.07330646270375243
LMAN1,0.05436595965006638,0.1168612901281515,-0.030589863751495607,0.009574448952262875,-0.07603315405287041,0.02331544780433654,0.050802363285866334,0.08633473426994316,0.2735789108409323,-0.043441167293244855,0.015687694240621906,0.030569479602978965,-0.03228973823745684,0.11511562256181966,0.07427254229302836,-0.05883496409318313,-0.10457010427205024,0.11518925855214981,0.07255319283272207,0.0023303866775719394,-0.010907457194069681,0.06654889456799798,0.016229403420938416,0.029682925870603984,0.04357014433382201,0.052613933157098294
LYPD3,,,0.034703363682748366,-0.014947911178256007,0.07821806140111064,0.031201019974791064,-0.012609135344863518,0.0263673890752564,0.06782115323171492,-0.027095502229070634,-0.02220808185087901,0.021988873104006594,0.03216303363117561,,0.06027015556665412,-0.034528697824051185,0.07784063377503342,-0.021557126440347834,0.03328787708507279,-0.015027150104826269,,0.03954193285706452,,0.06811911249874013,-0.0028326535895570747,
APOE,-0.007714735566114049,-0.10388603230221727,0.06851416345844934,0.02072602774409363,-0.008927598909300082,-0.018140645700783737,-0.030753497839047513,0.12172465357069844,0.21072174160372287,0.0847067825766821,-0.03445694901825304,0.05517632937703659,0.030440519494289865,-0.03739815659906481,-0.18621809533570635,0.0025194068474289687,0.1423183898506485,-0.005020798640322627,-0.07236725023455512,-0.07694567894426332,0.04252723538317917,-0.05700265423200616,0.19757389492872549,-0.010718870400181428,-0.11249551383970169,0.003915154088992776
SOSTDC1,0.09605418507921784,-0.038535564877498645,-0.007803430123468334,,,,-0.05282665542473172,-0.03405247395280132,0.029407697006938245,0.025498047979165443,0.00998085089387907,-0.07673967769284092,,-0.13494298756656267,,,,,0.04334179374387424,0.06839465129555579,,0.05171041502865613,,0.012205406758196733,-0.011521246294467893,-0.06859275696047261
ANXA1,-0.09742322932092402,0.11213556577136757,0.05839898587510098,-0.011934801074222278,0.036855535359248986,0.03059423282760838,0.0175559426064609,0.12289992982711971,0.31170390315046176,0.013319709819257208,0.12353908840664095,0.0758514532310949,-0.023348084985454983,0.11273352115425599,-0.08970913114339547,0.03619406233254451,0.06998955000966896,0.2849644296263308,0.1490893590847201,0.15829875298620272,0.03602076138884079,0.054997153326212175,0.03854447987446469,-0.06818574345735537,0.12940585121286063,0.13557833463194183
WNT2B,-0.004254269964319945,0.016627543398970334,-0.015023798927939579,-0.03832554664601526,-0.019250643695125653,-0.023318966849838373,0.03870951393851313,-0.08826027233094146,0.10594707266237015,-0.02126438923444047,0.03169290062620018,0.021794170192992863,0.042850185329939804,0.007291249741348159,0.03900549457723103,0.133045753895054,-0.0866258768891285,0.08181160406277593,0.05589212770021293,0.07616386147355216,-0.012013600229066657,0.05741225655634035,0.015566325253814182,0.10200399267454793,0.06628210175033766,0.04497130484633991
AMH,,0.0877073322025834,0.0038668625472797957,-0.018555382034593743,0.03789544555691023,-0.008964516621891332,-0.058089714553261215,0.04809139322123682,0.017126328308400048,-0.002707514909876027,0.06692067927605058,,0.03325628365959171,0.07637474480951166,,,0.06587823310553219,0.030167980561504985,0.08218311598874586,0.06828824940498619,-0.024231623380955948,0.02462190628863298,,0.10259984705570382,0.12522260665423157,
GDF10,,-0.024168257187227087,-0.003108524116853957,0.03649136439359085,,,0.019771223802313224,-0.014295118624252725,-0.049397053431824864,0.009729349679165967,-0.01900891820945404,-0.010049105041859418,,-0.07917309820800099,0.04761105017786507,0.047791508485747446,0.0319649083369065,,0.05316484445377173,0.025022092781462283,6.34749366687944e-05,0.02542037496820855,0.06445368745941782,-0.007095313180838952,0.04147209060523855,-0.10142971305036143
EFNB3,-0.04875420253662686,0.04566234699105409,-0.008074280477939627,0.01346278428968372,0.028213945645518476,0.019288483218028153,0.0011818030261219706,-0.07086775457164338,-0.08585092786450867,-0.010663200675864733,0.015312142361291615,-0.06851731834628937,0.001984456844011284,-0.09335339692090265,0.0501688749568198,-0.017910759043293048,0.04003265044628834,0.08738982941689102,0.005485032982397151,0.025236789845629742,0.04751419369534106,0.046801549690415944,0.009161296931832914,0.13750221335032559,-0.020285679906448795,0.03374337351809741
LTB,0.03859718572163639,-0.029073598326709086,0.05017347058247893,-0.027677308197231656,,0.03718550611992602,-0.007290477347768487,-0.03589623779579853,-0.007928487237023017,0.03710200147476977,0.014826043772649686,0.057087289892311675,0.04089655521780707,0.03267371320671398,0.10545235721118797,-0.0011317462074670061,0.04049437619594968,0.05276790751838705,0.07788055768981347,0.04008278229519448,0.00011136750043449645,0.029907930014312807,,0.09048390073636256,0.08227040068833993,0.10742721062680934
ANGPT2,0.034488369142668326,-0.001803387541117513,0.027376495931737365,0.026926615266929056,0.028853559431984317,0.023735121744562958,0.013298700577076748,0.15030446079092488,0.33566328011318564,-0.06302497298858259,-0.0163766168282589,0.06189025789136421,0.1531019304587029,0.08290126218258471,0.05306680389674067,-0.0885752394643771,0.0018156757887705206,0.19102083585671903,0.035798766226104124,0.19711374032443627,0.007557127148455812,0.036491729761754965,0.07124937528545218,0.03180555473295376,-0.05344363108973331,0.11899981465216893
NRTN,,,,,,,,,,,,,,,,,,-0.09440709417866437,,,-0.02429617222652233,0.004909334963717293,,,,-0.000981570761677259
ADAM17,0.09243216441912745,0.05825455306532452,0.025394002273730017,0.021762730066310288,0.019635761374770154,-0.003162451719863971,0.040192611426650975,0.15327404078097298,0.10412345808484207,-0.014390239014992862,0.03947849300440601,0.086550697346198,0.014999330808822148,0.13618605090862734,0.028128496729101643,-0.057434124172321126,-0.037479696975783836,0.08104322406202497,0.020046344413661394,0.036738210862957296,0.0656531115992772,-0.00046422397008150443,0.03139102019056883,0.06850980211860405,0.11514755341568461,-0.08288945760320782
LRPAP1,-0.001601411948324458,0.048136278590856084,0.08224602450057969,0.06111036000406158,0.06581234424829611,-0.0021867987495491435,0.03159614172192513,-0.018187844165524575,0.12612674231808627,0.019158927633001904,0.0009324827719658419,-0.010620272226932048,0.06090169306288743,0.03228893993406255,0.024229429153044102,0.040985364613444125,-0.07436755805751206,0.1981434209631981,0.02569241489367083,0.03151508156348675,0.06734963058557121,0.0034304451867218015,0.13688155021628698,0.06466758907679486,-0.05429740515586601,0.060457881184683614
NID1,0.08091121923156776,-0.07778490173247464,0.0827675855539079,0.018527492730154266,-0.03239841881572918,0.029235998910884933,0.00644302668073682,0.1772436049143858,0.28408444901674507,-0.0178741334121751,0.019384229972990694,0.1325658735518803,0.03510172192955382,0.1050827853526012,0.0590299168635449,-0.06019629241244304,0.035147586514529046,0.17466542886446157,0.003460443400680937,0.07384632573731735,-0.041671692168052304,0.032438335495599574,0.08878755192133232,0.016589805464616282,-0.014435365123113098,0.0257075320763133
