,MGH258,UKF243,UKF248,UKF251,UKF255,UKF259,UKF260,UKF266,UKF269,UKF275,UKF296,UKF304,UKF334,ZH1007inf,ZH1007nec,ZH1019T1,ZH1019inf,ZH8811Abulk,ZH8811Bbulk,ZH8812bulk,ZH881T1,ZH881inf,ZH916T1,ZH916bulk,ZH916inf
IGFL3,,,,,,,,,-0.04501808391794427,,,,,,,,,,,0.04524232357600471,,,0.08790666567913899,,
BMP1,0.0064062256116277925,0.13557377860782244,0.058617585713213724,0.015430275121298404,0.05559344175125602,0.06330220068832537,-0.11287182220533785,0.08349799313295173,0.2574588836133624,0.026224105847426616,-0.02145347957476048,-0.0637797085260788,-0.045325243107176505,0.07470463225374765,0.08402117223374768,0.02329212412901475,0.06264768503099116,0.010389461879695853,-0.00014433007291384575,0.06326461853919589,-0.02410240807637677,0.11231811310196824,0.030300161013718418,0.11399434878492008,0.05686286608324369
NDP,0.020352052680730533,0.03374179361511574,0.006301757073713885,-0.001734230338448028,0.11023783337782653,0.026786310665402536,0.10354606185222275,0.02945965065859981,0.04085739510443126,0.05998545392995639,0.06354563585096396,-0.028783459325429278,-0.040781141830779695,0.11300779480577687,-0.03721797079650071,0.026721693503097808,0.12108640418555527,0.05805136664142915,0.07877893247725054,0.036226578004002655,-0.032193283249149905,0.12699148376391145,0.16577606439430578,0.059899411425074774,-0.07718746546168868
TNFSF18,0.001395061367136196,0.06311658621402191,-0.022817287001082945,0.006499085280049779,,,,0.029442839917378127,0.07920741420676977,0.00584279806487709,,,,0.07738008017462125,,0.05995099131436697,,,,0.06902165436485815,,-0.05190330680716052,0.04849145150442297,-0.02138381477696531,
IL36G,,,,,,,,,,,,,-0.03641618330550285,,,,,,,,,,,,
RTN4,0.011145194204558968,-0.09454160434372898,0.022621782176503315,-0.02024976404793489,0.08422704460416576,0.004209521225480006,0.176623122109661,0.0024422083590607308,-0.33059804983510793,-0.03234643686080564,0.02181920580874698,0.22909320268908104,0.14196145729864262,0.017465970927988902,0.05484745044396747,0.09616118441447942,-0.12387455442971262,0.07540323748080856,0.052961371293260374,-0.1172828510166964,0.25586908307102313,-0.07645523136827988,0.024175584214056425,-0.027201593329365014,0.02896586620721284
HEBP1,0.0697045715555678,0.006591964319966043,0.044582003759576154,-0.00961797183642701,-0.007506371629386024,-0.03723959895562194,-0.058936864760155624,0.01613035316423463,0.1752720185515915,-0.030120190931508778,-0.057448696995215376,-0.14833112386401487,0.011692113968969919,0.018321629043500914,-0.04074325959399589,-0.06283625958488706,-0.004721146984862855,0.05664029538725105,0.09008403639040223,0.05665957197935259,-0.03797208338298955,0.00048641357261767544,0.12736182091373965,-0.03328727018878639,-0.043993493850373905
WNT7B,-0.027724307117230916,-0.041807130546102585,-0.02646423615809199,-0.009932903775671787,0.0034473553474276488,0.01857989603718427,0.035733500815552634,0.04605665170561926,-0.08781783016790477,0.03440060794482474,0.00640029648538547,,0.11393620352276816,0.05417385754037045,0.00912082986968823,,-0.034056079720595565,-0.07747644355240697,0.0274757712803217,0.008069193962074919,0.029976533193091858,-0.05190325298733033,0.047819848173337155,0.11072769434608543,-0.04978316813600078
PTMA,0.044817045377405246,-0.05559961743821973,0.08788091046731804,0.06413851747958749,0.0639131635972056,-0.009323246225098034,-0.17013321398685366,-0.021987959797440434,-0.1953035939469863,-0.00868133333945768,-0.08807193379146486,-0.26598871428952214,-0.09113625471780556,-0.007456052722650758,-0.06844275191394346,-0.10384291080547395,-0.24007427432082606,-0.04485576987098905,-0.013156929708377924,-0.0457487473261219,0.039956221860219104,0.03469059912154791,-0.13922221204250992,-0.041069717870446235,-0.032077858345309664
FASLG,0.018255901548618336,,,,,,,,,,,,,,,,,,,,,,-0.021402215362019087,,
CEACAM1,-0.035552959610553304,,-0.047453592275888946,-0.018000957193614994,,0.025735683553846075,0.019255019149491372,,0.12292044165591239,0.00913444818915113,,,,,0.04839116269923176,-0.07160295770430206,-0.016799889201669565,0.05682791519756865,0.008221903139229377,0.04346616984497653,0.009959782948040185,,0.03610722239704043,,
PDAP1,0.0010750546167003574,0.00913056113577542,0.005299446138935643,-0.05231297696553879,0.0055463533163122615,-0.01705562719653314,-0.016941860672494348,0.07567180136393935,0.2762899168659451,-0.023291402571329372,-0.007109841212812725,0.041919003749434594,-0.06168097956180976,0.028338080705791677,-0.117926396551987,-0.030713375887864575,0.15196496381463742,-0.0028233067028382366,-0.1260445261017218,0.027291318440854844,0.1266584176106969,0.018496538261994943,0.022301494661992553,0.0005701119059391183,0.07666236025889163
QDPR,0.07458739120952579,0.015505280634556674,0.017248112776887658,0.004081828794083392,0.13088685637304184,0.023652591916262188,0.12978159765587755,-0.023280712417820218,-0.28483392585262285,-0.03419119035007231,0.024800113858359178,-0.24311930650608957,0.06401156683609777,0.0793057250011676,0.0734720648606399,-0.06592212987714126,-0.2196960597136247,0.06780660708483353,0.10011139719660116,-0.04920428630713595,-0.04036360360137629,-0.05142368647040583,0.1339783249602543,-0.04254466661900452,0.12171344125895918
POMC,0.014916412677921487,0.04201993982216039,0.00010372098569872004,0.009699256156691188,,0.053749642718210755,0.09543279475944504,0.03915181230742291,0.009578584681970124,0.021127488288035335,-0.01245586020579232,-0.056760003471986786,0.058424635103811615,0.06578084184364706,0.020228061912214674,0.0025096838266379677,-0.1265196440600727,0.06039422804077955,0.06715464349637272,0.009676028882244878,-0.04816118666177496,,-0.0017258331235778053,0.012372032420326596,-0.05208202481114584
CCL18,,-0.060237024806076574,-0.03146110540669986,,,,,,,,,-0.09298820427796001,,,0.047037886253390504,,-0.07580495149398525,-0.028687527002757653,-0.03343750784106626,,-0.019089953776020678,,,,
CCL17,,,,,,-0.011425881253230779,,,,-0.022437209391460523,0.0017685586471985926,,0.030304104636182518,,,,,-0.00641050537659974,-0.055950153990547806,-0.03893543833933698,,,-0.04999977915364614,,
VEGFD,,0.01556359124272172,0.012437931651976116,-0.0007681933822999994,,0.02964085430508781,0.04764030364111598,,0.09424124989842725,-0.03680215603328428,-0.02812556830248715,-0.04466793856818121,-0.03565350718213989,,0.0024718851886281665,-0.046659704291742474,,,0.030595966049667956,0.07244622790055584,,,,,
TNFSF13,,,0.043422735447669794,,,0.03247902933662821,,-0.03190380362815766,,,,,,,,,,0.07151107262385664,0.030390578780668816,0.07467791977161926,0.03250065517385241,,0.0068088695345134825,0.029513832976477927,
WNT5A,-0.022393503006822475,-0.04624319205229585,0.011726281713916322,0.02473437802193417,0.10642837676147392,0.0203755918947752,-0.13485537283945778,0.03525982770864717,0.26208627921151495,0.06572693156404327,0.031407143315285525,0.07259109150715944,-0.057802387983720546,0.11532210119376211,-0.008040199935143124,-0.04628975209700621,0.08361221477533294,0.07281328696383618,0.04580304945484568,0.027054134665277854,0.029211215589511615,-0.04059467793986342,-0.005790774816489899,0.04672844838536454,0.06678753981311307
CXCL8,,-0.025596702233899392,-0.0364344599285734,-0.010826112008912986,-0.12069542786447032,-0.10621550607478654,-0.02895215955483835,0.04890333934259511,0.12972374419603616,-0.04578116783618968,0.029253640365008434,-0.043850441265733474,-0.06536136206609132,,-0.034875446303497794,-0.04324956084909835,0.046166976162323486,-0.14019351472816416,-0.26525391961775063,-0.05316153341738538,-0.045243025773033324,0.03725544353783904,-0.056651653942751054,-0.008486433753965284,-0.01967625836447083
GRN,-0.062092551268611705,-0.008726516727834815,0.0017086518108828557,-0.01140465184143003,0.07700673842035899,-0.006845121107473023,-0.08053299081536254,-0.02708652745703127,0.20673586015728648,0.05906149111901753,-0.03103979295834972,-0.1502531865676657,-0.007190660099057196,0.0926307940617751,0.020776397972178003,0.1254149921220451,0.06683942745609021,0.05013488489718861,0.021118916682514293,0.16014836608780947,-0.1679589504914524,0.14475008324907707,-0.0900095408108117,-0.021100653917684314,-0.09023778115370341
MIA,-0.017603125984484106,-0.0525017423355636,0.0032990249053796114,0.0210151196207382,0.026461690002075853,-0.05230362135594532,-0.006823781212598856,-0.0023352697977706057,0.11070368295634954,-0.002886865411845961,-0.0004317222135900548,,-0.007919695136590986,0.11244341076292279,0.006414131301231744,-0.0012366831665495792,0.07205302403958808,0.14689083552146154,0.19626910209539533,0.11178772976455136,-0.0762832394765846,,0.20491360858423313,0.051456754259070564,
COL4A4,-0.05549444497511421,0.1693346145106621,0.03509181293297475,0.03380266055960298,0.00952759675091688,0.03234139529150752,-0.09801159580184704,-0.002349829936172712,0.09184026123190382,0.019152505741118216,0.05850055171242137,,-0.03977359040069542,,,-0.06283542516801408,0.042187683217690085,0.04534769274470704,0.050315040940345834,0.0403725928688884,0.03815781811447593,,-0.04172714913771722,0.018320581407231203,
TAC1,-0.04791759590234031,-0.05065670748206342,0.04310286001969509,0.003682873643653534,0.1324191230777715,0.08961456560152065,0.21294590106124142,0.06947086134441176,-0.15802447371763675,-0.009039435172191575,0.007416449710485553,0.20827547188858528,0.18429885144959093,,,,,,,,-0.028170550837838777,0.04287360977656907,0.015100731061273494,0.0028736772188414925,0.07324953593932283
RARRES2,-0.016457135404503897,-0.05058337031775868,-0.031614080965617436,-0.028787015480100493,0.007034911211336431,-0.019463214039571283,-0.10727095301454623,-0.02024570104082778,0.2941171817860553,-0.01871436418208002,-0.010783641939954484,-0.09253447099025679,-0.057394720439142115,-0.057000747596325216,0.004111537173960732,-0.12935073602036673,0.129197431089485,0.011855601787090905,-0.017831612899929274,-0.08941471953188351,-0.013940457544928756,0.019122823727386988,0.009142045928906127,0.045154949777352786,0.023311847538957087
FGF7,0.016932809991375433,-0.013199116398360085,,-0.02910061171220556,-0.004844855851927165,0.03927225149114989,0.06112999046324309,0.03319476835057577,0.0801742846623553,-0.00777619981370204,0.08779750909173262,0.03342042385746209,-0.04088786727811111,0.07913051238405644,0.10947744796397077,-0.01426924152150897,0.05942755070364006,0.022883099974425752,0.07939742693394729,0.00019405252988384191,0.06060291187121755,0.06440063110999171,0.1408755144163637,0.0463993235197267,0.04154444536549334
EFNA2,,,,,,,,,,,,,,,,,,,0.05109041478040727,,,,,,
HBEGF,-0.01521734079015712,0.02204787318015812,0.030176080240554824,-0.011698495700599417,-0.0006011046673027049,-0.07208530012772496,0.013532641672235583,0.013307757768545982,0.08876519843769087,0.023632864724143714,0.02087501232173935,-0.09772531823117532,-0.005854280380040757,0.12360508645399133,0.04558138854788913,0.016587314892151067,0.05077079505379818,0.018660769519704478,0.054305474182444725,-0.026179308322551935,0.03656947194674623,-0.09380979831267312,-0.04871660155537165,0.03221435249684259,-0.054071084731170845
CSF3,,0.04124981124445027,,,-0.033703412482755477,-0.01760168271956316,0.033998563193163946,,0.04484154678291276,,,,,,,,,-0.10725983357914906,-0.12714468633203632,,-0.025571995324666915,0.047789949124063834,0.04720188984716621,-0.0025766120663777456,
PI3,,0.00798379170261208,-0.052774973424194085,,-0.008897891717681785,-0.03668830985277206,-0.00803518943842298,,0.03881463069606653,,,,,,0.10337611107116021,,,-0.16065037348504474,-0.2141331073199801,-0.023756438712466056,0.006186429861017886,,-0.07207122601429601,0.01051111978954196,
PCSK1N,0.007815332615895555,-0.03132909930656607,0.036153608173088304,-0.008798612554279439,0.0902506206162219,0.08458203202807173,0.0445049296258433,0.0025074407579584617,-0.08902961701879947,0.016464530924323463,0.09004588329309367,0.25323428312308405,0.1162876934415404,0.025423717596629012,0.003056439715613525,0.016108211945739557,0.007270920409726099,0.09052765965107824,0.16103875103305576,0.057814698670863134,0.3104375349356131,-0.006619237515123173,0.15163190716922703,0.023803220377413094,0.06632105344210815
NTS,,,,,,,-0.028427904858483167,-0.032364809795136056,0.015509990147005123,0.00790397176830158,-0.057110337055215024,-0.04021549326360052,,,,,,0.06440150257034148,0.06702037244898298,,0.09362277686206674,,0.08483111329394227,,
SFRP1,0.05695297613138669,0.0504598226187721,-0.008284859184080342,0.031105594249110396,,0.004918263742022306,0.06753469486247791,-0.020169890426757087,0.05709283929116123,0.005124842895201533,-0.00465649152511355,-0.10167703599327935,0.045301206271236176,0.0734751046732852,0.025173305889409046,-0.009228572502569327,0.0635439806863879,0.08756052794971877,0.055577673482571414,-0.0007129833870631636,0.15104178993111023,0.1018717522811794,-0.027332773529046242,0.04861970778607553,0.011677807580795053
CXCL13,,,,-0.027666505607048513,-0.02432286195421863,,0.012601447208612265,,,,,,,,,,,-0.030060597078017108,-0.02831029251179969,,-0.02513159986510022,,,-0.009937661106352788,
MICA,0.03096998212242295,-0.041735148856780056,0.011655809419848699,0.035153546797052945,-0.014453578603256464,-0.06866111843952417,0.03677120100787683,-0.02050592075189574,0.13965436704027223,-0.007386660746116968,-0.01986761255632614,-0.04536671847856974,0.001495959880059667,0.08022778702984514,-0.0489660966754273,0.038784679318725736,0.056301534274653474,0.011652922355291456,0.05703404567238216,0.060765225660188556,0.008280451881914758,-0.024369320042830284,0.1077027389546911,0.07173952350276655,0.09118612876156029
TG,-0.038065926123990707,-0.004399445020647983,0.012578299833053445,-0.01123772459266165,,-0.02139518920535942,-0.01799031406269101,-0.05597029802746994,0.024297711503682037,-0.02715330023040972,0.10459588764881182,,-0.018960648255719727,-0.00033903077732667334,0.019858916327395358,0.05153074296394268,0.026310566254160794,0.0728595291061188,0.02354019530367016,,-0.029370479645972766,,0.03674992885670691,-0.00665211520478884,
ADA,0.05452497370532722,0.0032033519915542503,0.004778789445994522,-0.000981406351621517,-0.009026736284325064,-0.02620572107622743,0.01921700604905696,0.05456697343189297,0.23760912599091535,0.026583754470402496,0.0007745748670316894,-0.1219836118092378,-0.004841903094424375,0.08097521052028547,0.1318699410427164,-0.011516126958918568,0.025322267891153893,0.03567233028443722,0.04661307843883147,0.09057829079483634,0.01588060794361367,0.07500103064892394,0.019895805142869285,0.053699592104864136,0.2150918244960578
LAMC3,0.0244922213626248,0.007827977965535237,0.0004942848116053468,-0.026820177607060257,0.0661401004232032,-0.02600405105842575,0.03626234487862107,0.06254219599031635,0.22001762639073955,0.015626956246538443,-0.012166849919261936,-0.11610887959393175,0.02081236571580819,0.0883119158271149,0.06363028448456563,0.13365011038163604,0.058397237699360886,0.050373369356907775,0.045655051086797224,0.08653273134375408,0.003521720193770848,-0.02782566949232221,-0.029646228157963375,0.08793077108825663,-0.06499584826055807
CCL7,,,-0.006798840573164177,,,-0.02163977694978884,-0.02580358700799875,,,,,,,,,,,-0.02681480562979531,,,,,-0.03801946936455433,-0.03846836088164021,
NGF,,-0.0240687663769534,-0.06223360596230381,,,-0.07773553634229158,0.028227437055680094,0.04386448126994073,,,,0.08137372968751358,,,,0.16595992326709116,-0.03885175071575368,0.004328482574441017,0.01911691351204087,,-0.04027342669988195,,-0.035235466664721986,0.07886287142697433,
TNFSF15,,-0.0016659315755384466,,,,-0.022662932034535566,0.14734702496110025,0.0016638375833853654,,,,,,0.03888760674185469,,0.08503837535157259,0.03309938853302692,0.06603079619130675,,,0.029076206145341482,,-0.015577588818619323,-0.017008808314666873,
HMGB1,0.14372315178353184,0.031222474936988192,0.05416612879435236,0.009885174422423563,0.11998160402535864,-0.0030656945845938376,-0.00014658294558699174,0.06661951391805057,0.2231253268700292,-0.01546830269103563,-0.026274221745197314,-0.040817354038866153,-0.01565981859239014,-0.034539309312616985,-0.007706756387760008,-0.04385604882464263,-0.10673433078882495,-0.010170768385008156,-0.021299582535208722,-0.024820668294024403,0.11245289283706804,0.007154765108739942,0.07823275224779722,0.09255688937312403,0.05638449422352567
ITGB3BP,0.012242224820117793,0.025078516830133183,-0.012884253164841632,0.010868559552195812,0.06638422281493446,-0.0257603163441974,0.024070369500818548,0.014429655157097055,0.23845364577822853,0.009092094260661022,0.006907568912941317,-0.01329633773784036,-0.0010224695157903885,0.1479491136142571,0.020173150618552682,0.015855820555206932,0.07377068652572336,0.021074847827410113,0.06250981362493657,-0.007396691423222822,0.00010140026088598496,0.061098361116727395,0.06284239228329588,0.01001023991065545,0.10424992403639169
AANAT,,0.03005376983942018,0.009231332615413625,,,-0.034167301125884154,0.038567394553549406,,-0.05334608851067428,-0.022796317059273714,0.03674741849743661,0.07250360168723623,-0.019750001880720243,,0.07820969332522704,,0.09439495785143806,0.03777378909969467,0.04636824163942212,0.01574283189752235,,,0.09451804883264184,0.1064416866065162,
RELN,0.01112343942375534,-0.02283116315973958,0.003572544585599054,0.03665689324062015,-0.03008213822066706,0.01353848087250248,0.08520840797611118,-0.009262192896658115,-0.1000276293934732,-0.005265298759665658,0.0007364005224976592,0.0015386436070327016,0.06112191636802545,,,0.03105452007398725,,,,-0.048261223668288306,-0.04386174352543321,-0.08457603122756707,,0.013289546523982405,0.13495594979836006
IL15,0.05117377577563687,-0.03158863048345833,0.07192800461937715,-0.008984880728123897,,-0.04728003401501447,-0.004666074499656014,-0.04614624599962414,0.03614726455917306,-0.06238606916172165,-0.01571023592668926,-0.03346501740870734,0.01305545375092691,0.005060145064635821,0.04931011001516891,0.004962264333445258,0.044386541671216626,0.010803896702866926,0.03567257276451232,0.054799797652452555,0.0055985133725267155,0.012778952285227317,-0.045372700271676704,0.11563538738678436,
UTS2,,,,,,,,,0.14547214599941086,,,,,0.009067349780661682,-0.03439721861402485,,,0.00906293533476273,,,,,,,
BSG,-0.019914253217924265,-0.05014414898351735,-0.01797401753438704,0.011813123218817004,-0.009688758077195783,-0.0018614944477575426,-0.03405562968729225,0.05294481244996857,0.08124747791238986,0.06437465789549873,-0.011888729707389321,0.16310811264995703,-0.10018393118263601,0.10868036369057286,-0.01742726949444924,0.034812513334311214,0.1609637302591298,0.08765625016731289,-0.05621184438572021,0.140873086848382,-0.07024564990912664,0.06616158198959946,0.12713925183890762,0.14329705596558692,0.11081171300193886
ADAMTS3,0.027072585319933323,-0.006296779539318646,0.021075647182110024,0.014914201504809618,,0.004988257562871039,-0.01643012991522221,0.05248453516323532,0.32003284760529555,0.05382438935021204,-0.010080370897538372,-0.0060088747642779465,-0.014278175548975739,0.15364336662822947,0.0012125236702633824,,-0.007514450272854716,0.1053035361962831,0.17081059524982037,0.07473171430564562,0.11141954918640158,-0.017212840402001734,0.20471689989411332,0.08279275322023699,
CD34,0.06947852032661521,-0.02515442343064574,0.023050207024238135,0.05375887923901417,0.0884606270369828,0.02310517410721257,0.023270243710596872,0.0046393305186554065,0.183248554402307,0.012395969061903758,0.028399853923065387,0.07328773968229342,-0.02131553620929117,0.044197948531655755,0.07422259322515921,-0.03286752058526439,0.09236016369727686,0.052562916282301926,0.03526528163062662,0.04966542486654504,-0.059811369478373996,0.062432617263638794,-0.026068654194364393,0.016236017408408368,0.13854766613362934
CCL23,,,,,,,,,0.027086456611212104,,,,,0.08384218056027117,,,,,,,,,,,
PLAT,0.07763876307195682,0.0394741117503021,0.008391801238790918,0.020164153463715206,0.11760328510033612,0.010477392000346896,0.04304023500527133,-0.00023908612293299767,0.2498742004816637,0.03596666656812852,0.015053047642546117,0.013411722162467932,-0.05966168528013302,0.08305994647871026,0.04627927699304813,0.01791205737939674,0.060603539703499625,0.18449383259469845,0.25241180626418463,0.12568783103044964,0.2311048813299356,-0.03845304596955398,0.07597851186898534,0.09635510949561642,-0.016406801656357977
NTF3,,,,,,,,,,,-0.011058065484369597,,,,,,,0.1046688442361862,0.17975416823053203,,0.09648978777081993,,,,
LTA,,,,-0.01800095904083563,,0.014248054883600467,,,,-0.006889420238217014,,,-0.00441326502520208,,,,,,,,,,-0.023189963274748975,,
CKLF,0.03312727525549789,0.02009906554909744,0.05851455577944778,0.06880946735123326,0.10273054376902736,0.015163713455919773,-0.11709224756599176,0.015317455727669833,0.2706933106183812,0.054041291866508356,-0.021074048465239636,-0.057801114629508536,-0.07056947399815612,0.10225947474586791,0.09182715588357072,0.0131529676152519,0.09730912849191813,0.15350429796725587,0.03529910927300714,0.01220809591034318,0.008329836017198852,0.14736653777947034,0.11447584589332843,0.010050232688736263,0.0004905150036652942
CD24,0.037864238790309736,-0.09925909362608996,0.06026479756260771,0.0301641208371929,0.10363193027151228,0.01698282180330077,-0.053140476338725366,0.03637298187881948,0.0524777885942105,-0.016279419150046097,-0.03112647232248437,-0.04458546309655206,-0.002292312286858131,0.06736420022345327,-0.043850181377807204,-0.028183775931501655,0.20169313215636755,0.15144484978993433,0.15806744827152716,0.027400229384451576,0.21284603040382502,-0.034931879138102494,0.039140249349909347,0.09191589391081834,0.05584678559270196
HSP90AA1,-0.05269653190016338,0.022004838732349437,-0.017800044012326342,0.05725831673142925,-0.11874630913598544,0.036799205050723406,0.1510455452152895,-0.008800133145241798,-0.29146047183892054,-0.007488848659120901,-0.04458788257470787,0.2607264925519309,0.11760760677733453,0.0015372072190240067,-0.012702446572072429,0.026419128096687918,-0.1370223640634479,-0.16979941901856144,-0.2078047661209535,-0.013509110441118632,-0.018507954089464877,-0.12792167854550196,-0.025428992876795863,-0.003100512120664562,-0.015975444199287297
BMP4,0.08173074718331903,-0.008006267326952051,-0.06579166308456112,-0.019082071799607223,0.11971707101754067,-0.031957923020545786,0.0013570774169083476,0.06227999917428561,0.021110611670798446,-0.03964981095103295,0.022953831323809865,0.09015673841572407,0.003982580268156219,0.07877752593217072,0.09189122368114055,-0.02440485146731078,0.08812868161525168,0.03664672038647853,0.00023070312888226878,0.1218315058819882,0.011183830001588926,,0.0590305373652699,-0.001949097832719671,
SCGB3A1,,,0.0009255192592053254,,-0.04349240774851655,,-0.034055711026855735,-0.008964707019043486,,,0.05800843214300638,0.017428784434173086,-0.0026462637323443963,0.07606730805983972,0.0511807828639112,0.06992764550288035,,0.05879096000202685,0.04531925727021566,,0.009719731759544704,,-0.022665800407418373,0.005060090951370192,
IGFBP4,0.07640213436904343,-0.013593988551487869,0.020537031021065393,-0.03942076150023147,0.015782970859629174,-0.021101115632631763,0.015608902977018273,0.014305845469763852,0.2571013636697839,0.044057144192245636,0.02184785740064992,-0.0914944856040226,-0.07304825937201685,-0.046278814609209636,0.043209279695307835,-0.005146263245678175,-0.0459539808197327,0.05684755459588073,-0.14755604147893878,0.10415072192524978,-0.05177463826570115,0.022801118066939335,-0.04556202143217143,0.0544946257228956,0.13790624385613726
RSPO4,,0.05930024462755326,,0.14365628342157644,,0.021280647196549807,-0.0393058264566477,,,0.058366552885876874,0.02202248351215876,,-0.04519205665258025,,,0.05013511575955607,,,,,0.05367753260172969,,0.10034009202773243,0.035126043383307146,
LEFTY2,0.09887983489645728,-0.008304153826223081,-0.008089666696809807,-0.01822203820583658,0.09809256946374141,-0.03598936189671226,-0.040155182030056386,0.05579795172705073,0.24273188283354163,0.00990548269555561,0.021015349891292997,-0.04021551974283458,-0.05109232665624446,0.07508869831572079,0.057959949851091534,,0.022469321225340285,0.058118874022930055,-0.0049483077099164,0.11617778348954609,-0.0038331878624897554,0.18557304262422397,0.07669387060356525,0.12866773765489695,
PF4,,,-0.04845006926095471,0.002998886266845724,,-0.040406208709498764,,,,,,,,,,,,,-0.048738978034488,,,,0.11688922873056512,-0.029771478368180698,
ANGPTL2,0.010829945586745783,0.01611313718721725,0.025202734303846352,0.0051034350672882695,0.055541187148087735,-0.029131353967444047,-0.0627419113186744,0.022309871380975173,0.2716114001514868,0.01905825919722429,0.01856468628752192,-0.08977140517536003,-0.0761157194255883,0.07288906447068928,0.021644405977754702,0.029951057829203587,0.057468590078389524,0.22009135774627137,0.14164728258622705,-0.006336660612502064,0.05679212435708466,0.18038930836958725,0.03853556378333383,0.13541467672047983,-0.06639458834538839
LRIG2,0.0063143839998069514,-0.05490850029604656,-0.028858382851527583,0.011385113772545807,0.050853445027448506,0.03337429058195388,-0.026359474617639198,-0.006427383568902288,0.16181044475793424,0.02305104534965869,-0.0049715802547625415,0.05142430133798134,-0.029222088644536272,0.08240792935468388,-0.10399608406420055,-0.037680289520845435,0.10074755347302979,0.06511177788925447,0.08999962027399709,0.05303233179625464,0.034690966917527856,0.16829515278671855,0.05872338155406889,0.11833734621369074,-0.006713696196568213
ICOSLG,0.0729562168721067,0.015550149256788872,0.055969293654821395,0.07189173149358924,0.08386689762828656,-0.053386959436151495,0.04880751928622181,0.06302398688912011,0.11671790186300933,0.031058312174217947,0.010010943643344393,-0.08809486559672376,0.0037751423164776848,0.1127585532012065,0.040321005795230735,-0.09312348732389497,0.08085542933589604,0.13862690338476535,0.14830600681959397,-0.05247340886061706,0.022661529325057737,-0.01464828120826928,-0.004262419194690229,-0.043457420694074766,0.027796976836164642
WIF1,,0.051805905189010557,-0.007246184882346677,,0.0982672383968854,,0.12020987668920786,0.00846244676748687,-0.16556306378136665,0.03153212551930003,0.03105261703840156,0.22703534281482018,0.10295180543585843,,,,,,,,-0.08376890276468459,0.10684040193423722,,0.12802412025792587,-0.028655320113805102
NPPC,-0.010790049732891473,-0.00023257442522363087,-0.004355003882452085,,-0.05521938694647094,-0.04392654773746695,0.16305135916191324,0.03162201819993809,-0.04468685653618243,0.03452881963465638,0.006008675450665195,0.07110741222663443,-0.04657150278715243,-0.04000128496630286,0.06294364992441712,-0.050307438431131994,0.05089690474649091,0.041611720794499756,0.028830562763331354,0.0030677298555887304,-0.03616927207115248,-0.08569807242055576,,0.07919299433209974,-0.05865171403467301
LYZ,0.028465033940137507,0.05281972499328701,-0.019519119924948168,-0.05970337752893908,0.03549858013710909,-0.019235203570269893,-0.021138928725630883,0.019861194977898275,0.18836636991267144,0.005102714648541978,-0.041208105643167556,-0.21976939884172025,-0.07430711613854758,0.06291888658581965,0.01970405698788234,0.04845307553917539,-0.0818428474152781,0.04885262533059303,0.1029084005394048,0.08914612482842718,-0.08556792871922173,0.011692560441498148,-0.0623486830786596,-0.11740248052407636,-0.024415292323178857
EREG,,,,,-0.04711679979904112,,0.028926440425673734,,,,,-0.02728988082953637,,,,,,0.017329710499235696,-0.042951853879076136,,-0.12139488021021405,,-0.046642108666385754,-0.010941732259816076,
SPTAN1,-0.036425327023177856,0.07062540940717639,0.05631255935917442,0.003529074924832417,0.08981447859958075,0.07090675677462235,0.08995052149542437,0.044941431915157704,-0.07142622875166516,0.021253882579311063,0.0228997176291482,0.2553496803335146,0.07438510431544096,0.07551363307005199,0.06704405047606017,0.06767905909025665,0.1969602828307448,0.06350279969422448,0.15790106407066065,0.0364230986053212,0.09447786458505156,-0.017089678226033987,0.11254287213719792,0.0507139348272622,-0.031869019637453956
PTH2,,,,,,,,,,,,,,,,,,,,,0.017307711273223145,,,,
LIPC,0.030222862167594358,0.05952005264627892,0.0018249257966233199,0.054247459640796095,,0.015505946862630814,-0.03805450937896504,0.03896523452893019,0.06950890010069202,-0.006430262430275661,,-0.04504075991733622,0.01241874211776957,-0.03450144653424246,-0.13126166051676988,0.0026241295345921837,0.0005286465574465769,,,0.01925535627271894,,,0.006674750270261948,0.10273100405571087,
COL8A1,0.05970939176800089,0.03224942112223007,-0.016268314721922066,-0.018661299544391424,-0.06267714115643898,-0.07218393565448918,-0.05834414069558427,0.03784622736135549,0.15170973057998513,-0.014098647017132933,-0.040265128849964145,-0.06969620300686688,-0.057293359569196525,0.019291321560601017,0.048619251056224604,0.07349820996765866,0.07657951490260256,0.07986720679730128,0.12100548811881721,0.08817306782747603,-0.07464174920920322,0.15637641573056257,-0.05691180475530658,0.13477159209960546,
GSTM2,0.027674198513195816,0.048710693797027034,0.03643816779238575,-0.0358803617308279,0.056212794522724735,-0.04178110797512482,-0.03317578940663894,0.003951251098067017,0.0827306217821461,-0.004784574509451136,0.023823821638101986,-0.024104556400764757,0.006546351035373285,-0.009387038992078876,0.09502279872224258,0.03971580277227158,0.15716625217362637,0.08523888859193875,0.09359580088664984,-0.048620953870412466,0.13070150567299624,-0.023021392614612064,0.1491278393947861,0.050830973306632235,
IL4,,,,,,,,,,,,,,,0.04331528204534673,,,,,,,,,,
SPX,0.026515391243371954,0.005083858154328202,-0.05902054212158744,-0.011743237191898435,,0.003050904230792594,0.21567802211362422,0.025371178524690296,-0.08495967811440722,-0.026833758622190815,-0.021326383377022744,0.028586366685898635,0.1163858491497435,0.0366612399401537,,,0.0013185210902974022,0.10521922895686261,-7.81846461046432e-05,-0.03163189358350729,-0.14473514154377792,0.107941083175954,0.17109493968674055,0.017455536053702907,-0.0040629478876057015
MFGE8,-0.020826921905539822,-0.0051799787207528,-0.024641851747591335,0.0069749868192707926,0.005809180640457158,-0.026355312372124903,0.09303861179108731,-0.0032367414963582943,0.0457781217942836,0.014492789847511758,0.07754369069747208,0.12035001746974729,-0.07296485514018279,0.03172525285078054,0.08785618087048863,0.09388375113363345,0.06796220710860384,0.008845953671256233,0.019264563431116568,0.09975902699229533,-0.08396573581374929,0.04298597271729466,-0.05036736426757378,0.05685368020089042,0.0387851595907531
TGFA,0.020024778641984698,-0.06990225527607846,-0.020412436322927534,0.09998499065243999,0.04095709759755787,-0.03525962105727028,-0.09822158014250963,0.019129406701059407,0.0719172771790835,0.013828119725965309,-0.04581998369679106,-0.08307394572646364,-0.05526138878194526,0.03370388439841878,-0.08254404100283745,-0.028593148420751856,-0.002536217535394181,0.0788613816944201,0.11128595438144523,-0.04971643032924524,0.028747137172827973,-0.027609479468678675,0.1802796019773084,0.05566800638914206,-0.06265767639312224
SLIT2,0.060846867639058125,-0.06311663531686855,0.0018683197808919728,-0.0021250557526466783,0.03952693123320642,0.04121232245821475,0.10420853995483488,0.04509689743292153,-0.0475278310435658,-0.047067219193722226,0.008766169514446228,0.14902128641364554,0.10066545550684314,0.12435879302136776,0.08260921337901694,0.047516951720597174,0.03164007919958651,0.08496722164524907,0.03743740766177276,-0.028501189563892904,0.06941725694029287,-0.05822548853891493,-0.10516939525750121,0.12107242080041371,0.20698875881400136
PLTP,-0.012450031051639426,0.046163808869964774,0.052193340192145415,-0.07541824448472964,0.1096669543921323,0.11144390536088536,-0.11231998722000518,0.0006385172101509358,0.31829364894776746,-0.008934531610879938,0.016062720473966834,-0.24809674049160038,-0.08176395845710023,0.07082920099813465,0.02111070722048434,-0.002349432287774037,0.09325891059046951,0.037377274357657614,-0.042181915000159734,0.11858965085094575,-0.16657808622630832,0.12600356775974267,0.03931174980211803,0.03750792733557012,-0.08009166784179707
APOD,-0.016367106505938884,0.03928529541172301,-0.000733587620483576,0.016599078856913016,0.10463347753604274,0.03202541815061033,-0.09530273193878556,-0.08971784206663914,0.05741671594834612,0.02243902297597763,-0.03397350610987735,-0.24294419810386536,0.07639811423835935,-0.15126222899037148,-0.007344741097452984,0.016355444572226766,-0.21720856539700686,0.1642387009198188,0.2535013329041768,-0.09590815285188078,-0.003542652753347671,0.08681832418524302,-0.13928972700759212,-0.01686716524677955,-0.024298314239666673
B2M,0.032380195399779814,0.0885738135870926,0.052549947431252984,-0.03807385838389976,0.14378452249002743,-0.020119782712139427,-0.08487272946420035,-0.04408972834685566,0.30931929551718496,0.017133640818283186,-0.018172548282080394,-0.2787222961041546,-0.1284333355338125,0.15795635843980244,0.025499547787280176,0.011282300787772169,-0.0742494563005831,0.08362510720038535,-0.0010722270000588512,0.10692678344849571,-0.1280543676419432,0.17006788994930574,-0.11109765438561035,-0.010542009884964456,-0.09359847972551158
OMG,-0.03914659925056189,0.08576596124364799,0.05583383639978414,-0.024401326667469154,0.09927398966629251,0.020271951215777025,0.023909827470364093,-0.012157264100860293,-0.10928591235012591,0.01041890108358121,0.057009378068290935,-0.025768720982881802,0.08732951164528088,0.015718386546452925,0.19193385720433576,-0.043561358298769774,-0.12256947841382715,0.1049320567058922,0.15593121640479088,-0.1418191881222597,-0.039343664026587614,-0.016595618104158834,0.14527776152411168,0.023697168472198698,-0.0025089139922445615
CXCL3,0.003812062227248055,-0.02314772883104132,-0.04392038828443236,0.0551011089148113,0.0025119218126533906,-0.028711038469723255,0.0022337040275594282,,0.006417453191342187,0.035782614204684975,0.003429632794807413,-0.05823842661919388,-0.029806448104464835,0.04519836854170665,-0.017693604884386073,,,-0.08671886515380256,-0.12225122616300625,-0.009758793646614498,-0.07140061913756134,-0.007550532840080676,-0.032161487165819666,-0.035507513149958994,
CXCL10,-0.09455043127088966,0.08568131645399171,0.03824625958285169,0.012087284141047408,,-0.0010081632712092092,0.021663636251213023,0.11800316558817771,0.2739219958659793,0.0546179400471967,0.018342783846899587,-0.0630637633680525,-0.03231648639982418,0.01606695964367726,-0.071266626599834,-0.005668846611368697,-0.008695891142205479,0.00389668303252751,-0.050529241741736425,-0.007960809032532608,-0.0008348815058110742,,0.10769495642811172,-0.01828319508433813,
RSPO3,,,-0.025600981530748638,,-0.0033087778349827814,0.006100785901432711,0.3679308568126402,0.004951758566935051,-0.07845942078227948,0.040788814702317495,0.015580982724049045,0.05081851773122417,0.028916545040438394,,,,,0.1012650468732926,0.07284269815186235,,0.12142483529351489,0.026334152227201424,-0.013377395397055231,0.04896400362509961,0.05005065110824004
CORT,-0.02776205767657259,0.013721962222081396,-0.008793074541252733,-0.02924349654020946,0.07733524149123754,0.020862487511198752,0.1255123736084755,-0.0037220078049567664,-0.10283185525537414,-0.010978532439871493,0.013943482271932392,0.025128126938812303,0.009686997684640116,,,,,0.051955270267171325,0.058785038521729505,,0.030657114368477918,-0.02002682809294872,,,0.02992703544426114
NCAN,-0.0044749767433669265,0.10190533415672925,0.052809480746664306,0.10892587706292389,0.11377596833805988,0.08327955612779844,0.14311875514298175,0.006020486227209264,0.11275166912555024,0.01576002270843647,-0.03277703230123553,0.24559289103461304,-0.037906476522577434,-0.02898083387482426,0.06995942201831686,0.05144241778397409,0.034580839282175604,0.17195676699110987,0.24542611924089222,0.19218144834109005,0.06632393238175231,0.1360799505328986,0.22301967571478795,0.025126509202822354,0.1841142918100337
PRG4,,0.14232380808788456,0.034063242505288666,,0.022082852784406862,-0.020025179795798643,0.03903124179216357,,0.09108575147397645,0.028515704193685824,,,-0.03641618330550285,,,,,-0.026848571338019704,0.058505165484874666,,-0.0037007142848312566,,-0.026031716975858588,0.0846289212928537,
ZG16B,,,-0.02702593912544786,0.04672413986835155,,0.011487835780817544,,,0.003913804083545385,0.03101696810112573,,,,,,,0.024699415114612145,,,,,,0.030697417705690146,-0.024531607015634133,
TGM2,0.016923667687170796,0.0022770266082692988,0.014729783919442106,-0.057396649422059305,-0.02148371609506295,0.0024263304841903107,0.04646486467275358,0.03161259491036307,0.1963457207509216,0.021843073925724748,0.01955016010651209,0.007386826126550579,0.028200678730811297,0.048223679357304414,0.015220602019654417,0.009219918051643766,0.06266090352496959,-0.0241818398686988,-0.05977685504536771,0.055049275611929765,-0.0473028340344742,0.033396148533947345,-0.027217749254736415,-0.03190128250827712,0.10042681770098456
VEGFC,0.026182568641893358,-0.04133701955199132,0.022158530346285146,-0.02530047832968923,0.007871325048132902,0.0018788376447431735,0.03175449841802938,0.03302010474249163,0.04637843515068759,-0.04102199864783176,-0.0031396044655750037,-0.04674793941596198,-0.027284423458250964,0.005529707712451116,-0.0018588739289340643,0.006035930195180411,0.053467021934470726,-0.027875276879632174,-0.05341493464914784,0.03811294210589171,-0.00404905488297876,,0.04007994512361491,0.08254137739223713,
WNT6,,0.03533356798168113,-0.00828968370095947,-0.01822203868406492,0.0061254256079297294,0.011914270930498471,-0.008647005912507338,0.01330063659056953,0.05811636896655725,0.004341306276887015,,,0.053073523844284085,,-0.0749791221458171,,-0.04181035322565195,0.0329090394988347,0.016108484404744248,,0.06500463743035595,,0.01840576602704724,-0.062483807144006205,
NRG4,,-0.049897932118830174,-0.043017951426982615,,0.008268955504627183,0.0005898083969482527,0.03658149478581096,-0.012632486499455083,-0.007344449086823951,-0.02611732496813599,-0.04331478272996887,0.13642913275518642,-0.01027683211611297,,,-0.02547290549514671,,,,0.01326830314284429,0.048227605936716635,,-0.014731690327735284,0.004351059436579742,
PMCH,,,-0.007460966447419278,,,0.03214220806465033,,,,0.011659754617906595,,,,,,,,-0.011355536383538688,0.042598036916622235,,-0.017965371137638114,,0.06247370086001508,0.03472242952620889,
COL9A1,0.028121091433589377,0.07050956474557296,0.013039774403860267,0.003491279836151197,0.06499723194720518,0.011573685358176173,-0.019520005032295475,0.03497190013556326,0.0859781406725868,-0.0177324675304473,-0.00989379693887823,0.11648254173983516,-0.01829980700482144,0.0053647253041508676,-0.024235653065070122,-0.0525625968934444,0.06327049974497345,0.17683694899273777,0.20300105647921168,0.004941793316840201,-0.004138363679209154,,0.1155835002837413,0.1448206807678203,-0.04237794883621132
GDF11,-0.006230896099807125,0.05289889592471233,0.014900714377901492,-0.05293186966745995,0.045096268767161794,-0.00696771205478803,-0.0159386068439339,0.08772275076798122,0.1921148367944402,0.018412275314063947,-0.044094401717193005,0.02898873669404906,-0.034197195077893934,0.09969906605431604,0.014105196073423885,-0.12308378972343634,0.13062743111008482,0.005738418049000337,0.05221215052033262,0.07254657475258358,-0.02230378100886818,0.1166333959117062,0.0278499194223922,-0.019561819745527655,0.0105098208797277
RAET1E,,,,,,,,,,,,,,,,,,,,,,,0.07721417108810616,,
IL24,,,,,,,,,,,,,,,,,,-0.10889706383494188,-0.05973230137077666,,,,,-0.055382558096979215,
SORBS1,0.034141217850104565,-0.011572146538650315,0.04751366210853118,0.07967161611979,0.1332107554963612,0.046469149260303017,0.046370644571175644,0.009893559740300312,-0.02489525681114,0.0065264328999058135,0.014709142781769246,-0.09834016847762746,0.040997325026609716,0.03454046207702635,0.08273326177511967,0.026892427149356395,0.05197709236161953,0.1351293731047061,0.06958012592948888,-0.02139875548936197,0.024099926779660913,0.018815954081458513,0.06429864892533924,0.042929906170207234,-0.12198620978959898
DLL1,0.0655208728530392,-0.006331856389994834,0.06703800240665032,0.07145322963506635,0.046307700576943736,0.04353761177823849,-0.002832894622402915,0.011111461962478341,0.12048432680120891,0.02083718310140387,-0.0571313375793532,-0.057478950211044606,0.007050358442345324,0.14922479598307023,0.03301680869711691,-0.0565408474022317,-0.00932866235618221,0.12160876871577553,0.15843672617123633,-0.035790824855105596,0.03534772229998139,0.14685856909621323,0.08290617869587864,0.14466017210083137,0.0831084904426822
TLN1,0.014233422761241033,-0.014472678133504075,0.02283925582463539,0.006544364177982854,-0.032033252113588095,0.01155765998694872,-0.15120875611336324,0.025912213241741443,0.25429721848719133,0.017982137029418692,-0.010830925727375828,-0.15506865832042843,-0.10931267741121249,0.09061268654407807,0.08134439799217372,0.028612665280925802,0.061433992438206214,-0.002980497732367939,-0.09106011228562451,-0.027687753360077928,-0.0341235232216544,0.04290245860005292,-0.16255275253093665,-0.014554063884996306,-0.04309233874716868
COL2A1,0.020585822978682063,-0.05107381939449024,0.005320582564170694,,,,0.035745200551197044,0.029831611439229272,0.051674437543363094,,,,0.03812436617121687,,,,,0.040899895711593144,-0.044118889509907194,,-0.00865670554155648,,0.0015160394091914091,0.02075482654262992,
SHH,,,,,,-0.010106188548831708,-0.019188281776346044,0.07100000765922115,-0.031336127183681006,0.02488865729971858,0.005742501218804765,,-0.0028119996648082227,0.14477127394253933,-0.10155823133578089,,,0.004051192246054077,0.03796312829548518,0.07085993367116258,0.05125140719393804,,0.15714774106701157,0.023966189306385038,
PON2,-0.014511954421315197,0.054236275064846476,0.0656505642767751,-0.01405701288352903,0.14550030143668044,0.07524506734807783,-0.09371130588410194,0.0592508340916901,0.21978378542930735,0.05049610145127337,0.016065865774947997,-0.10041582010786737,-0.054450281051025534,0.10492817978316782,0.04990004229373965,0.048809692299223835,0.04609177792501522,0.15887391830286735,0.10781668373074194,-0.023289389777211306,-0.16162336211301306,0.09823153651349899,0.16546477784940625,0.14805447679942585,-0.0497002858214863
ICAM5,,-0.02866222630735394,-0.00959240508915343,0.034929244384968784,0.04453020843515437,0.028547569435897223,0.14360054526331478,0.012321315833471288,-0.08047670967884506,-0.037418550874645594,0.0008859124486493615,0.09143269129689399,0.006880761127804149,,,,,-0.012966087475246054,0.04255830579325084,,0.006471642498306877,-0.033058116875864414,-0.002612574599610048,0.00497300345807187,0.06794476282627766
HPX,-0.0012062791625374529,0.0440888303419567,0.02151198640782196,,0.07954561868979737,-0.03772300007328894,0.024576092621601143,0.056953673053496606,0.11686404905470196,0.0070968344273036315,0.0762256886099339,,-0.03300904552256195,0.013656288776241173,0.040916437616250606,0.06396099921250879,0.03972374860138731,0.04420030858641091,0.037430719661582505,0.08037561624248803,0.017979620029969313,,-0.008472206775780271,0.05378649381683897,
SFRP2,,0.008119152652866375,0.06587748767996025,,,-0.016758349988011578,,-0.05189276771524042,0.06342775265419429,-0.028944388743342174,-0.013853050113108273,-0.11029273111002427,0.014547011345635939,0.08331056448275918,0.0782615041794314,,0.07337582051629603,0.05594186300487876,0.19866393526919193,0.0016293103459234272,0.05998362013351604,0.0645695208672102,-0.05146751511777897,0.118368726487834,-0.08199682654319425
CFC1,,,,,,,,-0.06580106793210068,,0.0018764883303443035,,-0.028647046293731875,,,,,,,,,,,,-0.030744920170871878,
CD70,,,0.029050169552333582,,,-0.023110439977343883,,,,-0.06294361493188382,,,,,,0.04945131949262208,,0.0320475920242069,-0.017502466248789754,,-0.03209451231980431,,-0.022130454993963367,-0.058527862162313225,
HP,0.014219077134181359,0.061891319356862096,0.009211707426333517,,0.13761285783824956,0.012961055490473918,0.04835022678033904,,0.13032690322677518,-0.009617516246593676,-0.008181062349461503,-0.06260082134324776,0.04249305308340765,0.09403466955518762,0.15100789262994416,0.0015035281871509333,0.07952898913139686,0.07447307083084259,0.029776090509769766,0.04849376760002715,-0.023101049654329204,,-0.044996333284846035,0.18134785380010604,
CXCL2,-0.002865011657181412,0.07793455251485716,0.05225098859308851,0.04327688163097929,-0.007715093810389983,0.03328061097879254,-0.009636252215631467,-0.006346729689320532,0.129342132230571,0.03883110150313309,0.02548209838397823,-0.00941312660311971,0.0035565019182443765,0.06009240131888068,-0.004702586333260321,-0.07328125760064699,,-0.046215284937175694,-0.09309233200577463,-0.009294474218968755,-0.050690984615914536,0.07286189638830044,0.00706958060466179,-0.022969093169439604,0.1085418416820762
NPPB,,,0.010676638350186347,,-0.10591089168637127,-0.02896232919847617,,,,-0.008996751591657637,,,0.0004255112139547396,,,,,-0.040081666569266185,-0.008548128455515083,,0.009865050322759309,,-0.04853240936451329,,
CCK,0.037858737600580124,-0.0936151520973389,0.051466625092615514,-0.02726030241564745,0.1560602986846665,0.05616168471413062,0.20898435945511978,0.04813634722083365,-0.23393045238383522,-0.05062545329220809,0.038971853044470074,0.27671831778728784,0.1356756972385849,-0.042660095629556014,,,-0.03703423664788969,0.14976616009065816,0.15278857836079807,0.02050310755100719,0.029412590570542935,0.026606072786347454,-0.044936691092796806,-0.09721326472981515,0.027084929291256374
SEMA6A,-0.013236237330141312,0.11420812413712972,0.018347627052549196,-0.012925464751043635,0.14684756604383026,0.017000308232602224,0.009637977993089611,0.016960083159736367,0.12777496023049248,-0.015124716429854973,-0.00304801136840498,-0.14202070542012085,-0.070865224166527,0.15047746178397894,0.006337230135368134,-0.04083059373706394,0.08685120985979582,0.07479211174001386,0.0896426408964651,0.019616888337160184,-0.04969360542947141,0.14417108202871856,0.11306396029338456,0.16995385116017572,0.011172252022302591
IRAK4,0.015026973216444573,0.08928841001899007,0.00047076934068910074,-0.032033099962480785,0.07189906111045233,0.048851242892830826,0.010714541713586325,-0.021737161344697442,0.17041451014845016,0.011583366309319078,-0.06254282243067591,-0.07881458528669717,0.02243980290565395,0.05088603549342379,0.09802569061063522,0.08016901335383186,0.08934342077865705,-0.01373670919876206,0.0980047797592962,0.026515096943086517,-0.013174797803698993,-0.056498667430607205,0.09196732181653451,0.1165285380840295,-0.012878853318125138
GSTP1,-0.006002845922259784,0.08937722031374117,0.0729331972489828,0.03803483010052291,0.06433073143484451,-0.007510227836049744,-0.08114710611378899,0.027677960579780378,0.2327551090484853,-0.0009885072141928393,0.008118910526168926,-0.17702797166529824,-0.10116825172016466,-0.010451717808758363,-0.002344967916923192,-0.04435225769436819,-0.10986182902937902,0.16022850748706247,0.12376724677370937,0.07368355022825028,0.0888238425297362,0.010410508877727792,0.07388341796473966,0.12856204890399592,0.007892074806384155
VCAM1,-0.04086670457500649,0.06969033894058412,0.07289162902214401,-0.008379802402146905,-0.03151694811551883,-0.04152432770298274,-0.04271385910656753,0.020443804367764332,0.2804102324193009,-0.0024976031779121435,0.016126694909135618,-0.07278389858670418,-0.03586346093372836,-0.022036321027137318,0.05407296493650249,-0.04757498006181188,0.06227551102395618,0.06544497243946593,0.004879312725584755,0.020128971002725884,-0.06818127851963633,0.05373616722639218,0.09717559711774892,0.08642167234907926,0.04873228722857916
NXPH3,0.0049219231850575525,0.040625379527386485,0.058205488240083,-0.001516321328526787,-0.012591432029415938,-0.05864592847964884,0.01906622533186925,0.10424365287087127,0.09882236914465391,-0.060718274123434494,-0.022889481447072247,0.05973091578515194,0.03658710738879825,0.07636325674600276,0.03744111150716584,0.08169820450747813,0.20317731075437323,0.13388221805213735,0.14793329164464605,0.02388954557009972,0.007554901398140827,-0.009526550827252286,0.17984117682242542,0.0916911922761984,0.04130792638977958
MTMR4,0.017575491720216045,0.06604961295168166,-0.03662035622523796,0.026667764546374078,0.019860171407560454,-0.006039315989729556,-0.05007916852226631,-0.012897697592543538,0.13543462122503733,-0.00872531878846779,0.002022043878051693,0.14228604562356922,-0.014116865675652094,0.05521175634412606,0.06301795323097317,-0.019234174177892867,0.08617100185021286,0.10503362833784109,0.1544059507566762,0.017830212946235127,0.06449468922584671,0.010975901347231061,0.10534869998175343,0.12626155513326098,-0.008827692577841028
LAMC2,,0.07891202676554879,0.031050404876407103,,,-0.011199067925258792,,-0.027596983655249645,,0.007344615748147654,,,,,,0.0070675473594670754,,-0.028779347636084147,0.027152436135386343,0.01725820822153713,-0.028742040752277574,,0.017777277366215545,-0.05802871122245533,
IL10,-0.01770116265169306,0.1462077143442664,-0.0025552989702928926,-0.0260998211896932,-0.025849474504113287,-0.002181924296648948,-0.023805294985841927,,0.06608470970359603,0.10750208957068605,,-0.09076427940910178,-0.03326721518710798,0.1051716295383341,0.05328849116678454,0.0017563729610872432,0.10031278371373369,0.04671938382802296,0.030404287966657072,0.025405013437895772,0.030826167941685044,,-0.014575504196324448,-0.008258137244282648,
SEMA4D,-0.0018555463968485085,-0.047281535362374394,0.02834878087865808,0.0023444139564347227,-0.0152699885577387,0.003047332481012249,0.03626427780026453,-0.03145344031267682,-0.0884438193713096,3.914239797747759e-05,0.004175427164045894,-0.1454293511469918,0.0006795141440050173,-0.09895647399826502,-0.01361181238411816,0.1450246858901849,-0.06864586250392457,0.15647346782028018,0.21559829059622,-0.018335032086310578,0.0035792944222409026,0.07142366295750775,0.11363013134542752,0.07248536572744432,0.01687992697284356
TRH,0.12240595201664688,-0.035541203793885805,0.04795117646679082,,-0.012722364686643782,-0.013665750331057823,0.05126472440997447,0.041594145641644195,0.10096079148851962,-0.004410833029666761,,0.00011437583657759817,-0.056759274599345204,0.12186085071260915,-0.007426915923125714,,,0.08472007495412383,0.17916272986082177,0.09437323759224243,0.06354740331030595,0.04749089880297414,0.05656505195791153,0.043479950335908395,
SEMA6D,0.06440015372735834,0.08072201262396389,0.019706195180471862,-0.016591971042706172,0.08450729172455183,0.042728517027061735,0.12121091593127523,0.009781611805327767,0.11440269637830149,0.0316474715080452,-0.009163286170737407,0.12622306973296077,-0.06951371833868561,0.12703012174405393,0.01162617477229775,0.044213446227512346,0.09443667035307299,0.06438172834526042,0.08530158986215769,-0.016071279076093972,0.2245200335650538,0.10306975107234519,0.1685467329514044,0.12243696435024763,-0.022973160891103628
CEL,,,,,0.042321298021895125,,0.018144665452328873,,,,,,,,-0.057955098359771695,-0.03304664969717909,0.10762432151621162,0.07585630132557065,0.03129946663939088,0.07854650849535907,0.0031996158773886655,,0.026443093430189756,-0.014368075984017261,
PDCD1LG2,0.019688098500064616,0.029924142948819916,0.09037828578439386,-0.03950908419655191,0.03323519049629925,0.0025623164496775047,-0.016868228373142505,0.01847406707579357,0.06815681069568116,-0.041419186396475564,-0.011665319115207202,-0.04282883758571168,0.009753103125191858,-0.027759572710803246,0.0420603636231635,-0.03553582208317978,0.02193983533249911,0.04167891885628715,0.03627233841917272,0.0017006564588669785,-0.03670461376921742,,0.08794285562872022,0.2091473687515106,
SPINT1,-0.0021070990022302575,-0.021149236333658766,-0.02505811629916553,0.03046989792342313,0.06392627190739263,0.055859853195910456,0.0708084790963586,0.08024574484267724,0.16212885897283189,-0.04591190477060053,0.0038273054795699537,-0.05515182430967118,-0.019406163339120056,0.008002781720151531,0.04980345676729479,0.05501235304536768,0.09047991213179189,0.08643142074001663,0.06857414853115622,-0.045591609302660804,0.03764386156327743,,0.0710200166085919,0.05199028106471024,
CTHRC1,-0.04133866872222064,-0.018211224974530118,0.024387113884354814,-0.015322970361148788,-0.028792007455824734,0.056343046766333,0.04839996339252817,0.03831046651950803,0.18583927977692813,0.00532314620408168,-0.02667109068297675,-0.009718524200209657,-0.0229161107976805,0.09947686770118574,0.043103414799712296,0.06885489802136534,0.11579197194987928,0.004960662380420569,0.0350825253151145,0.12389592365722046,-0.09362596211301474,,-0.03489808973843545,0.10192909187173396,0.018250330386516973
PODXL,0.030994569855156175,0.038978054996837666,-0.015180783243973896,0.06334958665002303,0.04815916432470755,-0.02783725338746359,-0.046934287839404315,0.02884337030465971,0.28673292179493637,0.010684817404872348,0.02971991183759161,0.06792797440467614,0.010574053491432884,0.15468408409876913,0.04066299319575715,0.14488032944325885,-0.0017898663743330658,0.10510849482193882,0.03912201180624269,0.12703137118856975,0.04623569802208116,0.034565084564316714,0.09221900545596187,0.1232129099795109,-0.06931379470723566
JAM3,0.07993301543534642,-0.03775723986931897,0.036214089172302816,-0.002860898168078625,0.07125578738065633,-0.02519216278981679,0.021426896749821164,-0.025051161530339445,0.15126911610037214,0.011832182739752856,0.03743730586370105,-0.21925026240399656,-0.06907525923586769,-0.010235421833136986,0.11825821662870788,-0.04501996746147112,-0.06300559598179616,0.06319183341389409,0.051364620968303416,-0.03777193048093532,0.028830855531325528,-0.002939176556027716,0.021876456348326134,0.08674836739489641,-0.03699066037946878
TGFB2,0.018825444638620244,-0.03195238507819421,0.03742929619904586,-0.040421854117989396,0.03000633785770758,0.026445413755300667,0.11765732768836624,0.025845355570215424,0.32398912428848636,0.07627786412414976,0.034923988063747566,-0.013382891076702664,0.0020225771956777633,0.06771318366866702,0.008422972785669568,0.0258834134302129,0.151449697418988,0.0971171560026841,0.13457492835922732,0.05954207107283178,0.03878578522833237,0.1531034593712125,0.04940402811560651,0.0640120236001657,-0.01820590331899693
COL18A1,0.0602548504654317,0.03861336881539035,0.005915084340463458,-0.012753523749896389,0.0761399684106104,-0.04657064455464751,-0.00033516816710403146,0.010436042554188566,0.198728475777234,0.0029556193316970037,-0.01575738584441846,-0.13314952311701952,0.008163808025316036,0.03817355486081103,0.10478035667851393,-0.025250138559359845,0.03294357246684418,0.04578371309553651,-0.04502700709547647,0.10794147599917953,-0.07028143388995035,0.059035750592427605,-0.11912361613004557,-0.01217485631932286,0.03898738059771402
NODAL,-0.04736240766937006,,-0.001970135906286917,0.0771661003422779,,0.013649515528659369,-0.03881417472834825,0.0522761578071454,0.15452403385596925,,,,-0.015041237750723519,0.0762807370156048,0.10943266655282102,0.014624114739238778,0.041991247254985355,0.02343752462528403,0.04084480449933879,0.004570866499274384,-0.06585036053073662,,0.0778400927435112,0.03272169652099588,
INHBB,-0.007093505512287368,-0.03340939278453252,0.010245957439174025,0.08721708214260718,0.09513141955837338,-0.00017455750548955333,0.03125612182526665,-0.05219217459528401,0.14818824870309852,-0.004309087316572867,0.02026727210758118,-0.01482908724075766,-0.0882737751429924,0.04866257629809715,0.03690720263328331,-0.03328761870844026,0.09259213942008543,0.07792195246066558,-0.01324301999786932,0.023117974112784764,-0.0681447247547881,0.14694682450041513,0.14795928753217563,0.16074608624442993,0.04886175331775484
LCN1,,,-0.03932499463955877,,,,,,0.0611506021764714,,,,,0.0709233691250436,,,,0.05051860634986491,0.015313839631927033,,,,-0.026992107866644643,0.08221154264738163,
ARF4,0.00910078902107173,0.0020361201866709753,0.0012404397676932827,0.008544133914866203,-0.0907678590787314,-0.07442436156887065,-0.023188297118988684,0.05093836461557517,0.1354771961867495,0.010614548514770323,0.06389544154552458,-0.03459224666713807,-0.11442314444681116,0.07012481500544518,0.017947870156504765,0.04155655191924195,0.14817796011122367,0.08453259925741753,0.14725132468793872,0.0503896994111709,0.007632292183065029,0.0009636527484438185,-0.1387004779675921,0.012502595348478647,-0.03915946459799115
CXCL14,0.09619951961610174,0.0012468847186172262,0.031196429103390468,-0.006328746461963116,0.008897795282095665,-0.04204465166751694,0.21836295910830295,-0.03218613442378408,-0.01650172836849574,0.01949843574383536,0.03944756154730804,0.05901687412522707,0.09299738410716407,0.1606619325107109,0.05240468799102226,-0.05606466528383003,0.08614711850273654,0.013634643505038376,-0.015016816092344957,0.12194379121896651,-0.1839343968272889,-0.07681777847330916,0.1650242095867518,0.1490570422326852,0.12988944294257632
LIF,0.031231578166367024,0.009382570435314094,0.00562123465243735,-0.022209629766480384,-0.05838015494103611,-0.0247167216844074,0.01090265183782002,-0.028604328135713928,0.1709781314854431,0.06779727779152557,-0.021886202841036654,-0.05781746095076991,0.025338385887985194,0.0045211228533728704,0.014738597194807933,-0.0583319065951574,0.0843668752305532,0.035072966724546496,-0.08033184001608241,0.05821182283869618,0.0884476190589982,0.01827829582636903,-0.04565741058953733,0.09006625225066979,
IL17B,,0.15581898531046445,,,-0.004373398367974181,,,,0.020147461485691544,,,,,0.04738311963789647,-0.04143619102815851,0.01224234248089925,,0.000913307365439447,0.07014282506131782,,-0.09347084423432019,,-0.0027929465974269245,-0.0024246814011731213,
MMP1,,,-0.01450779734884907,,-0.069640110342671,,-0.023948063361885458,,,,,,,0.18723494830883666,-0.003969112138571997,,,-0.03806536809929555,-0.04800859210536562,,0.09162901910229686,,0.03701432899279784,-0.05579162608830097,
MATN1,,0.00995775789868165,0.02239431957401293,,-0.014956245711268072,,,0.0681414591308778,0.01669264742357307,0.052087998147463246,,,-0.006152699347980689,,,0.08904917749802238,,0.03508978527029413,-0.027479534856730162,0.027832711429629897,0.06242195752376025,,0.008083333647885178,0.0335394529688551,
ADAM28,-0.08669474977329596,0.03949976286726853,0.007072245570473313,0.016207794188251044,0.017256141939506014,0.014546357771622045,-0.012023582615002837,0.040828412800288025,0.1888418248057529,0.04613000685425259,-0.02786488552694022,-0.18360311795701129,-0.023655147255061255,0.13314254145710458,0.06306583366446109,0.04773000902842005,0.0742311908333858,0.03469759690990299,0.01502415346106908,0.005604037041013079,-0.029812467988979994,0.10253166126039917,-0.016865433044028422,0.04127666897770906,-0.06359273321225882
TCN2,0.028379554397364923,0.055948124252637454,0.01370744735984436,-0.0027282583732779315,0.01964405151603104,0.010842076455567664,0.09525114034637953,0.09838880874926115,0.23095588500539857,-0.012555547343309357,0.042000686658071246,-0.12322429826636008,0.05946471608750954,-0.04235762088440163,-0.0521225489602189,0.05372732691032301,0.04184040256531011,0.03584035287158368,0.11020862801420707,0.09834688971350747,-0.14845096165900018,0.14273287459491088,-0.0298571675633945,0.04657280488507785,-0.034016763237256074
THPO,,,0.016551479046157155,,,0.040571396077266966,,0.0047860359056539365,0.0728694937192749,-0.0016151698317489378,0.01731573258705373,0.19289985910260485,-0.01768892076736275,,-0.043698713586033194,-0.0322655950224511,0.03245032428685432,,,,-0.03185190110192788,,0.1163475096819599,-0.04200227444190827,
CUBN,0.009528792205538867,0.027745271980455757,-0.015609413462964095,0.0941189034711801,0.04382180792508456,0.023560109014185492,0.01920668509660159,-0.04278385491710424,0.08586755437445263,0.0035313568762003244,0.0380115721695365,-0.04413402815622829,-0.03604537132697464,0.011482733133573087,0.06283518199757428,0.016248371466251476,0.1167914649186905,0.06341013859220739,0.10663667486769998,0.1272905584462462,-0.047958597713812556,0.019579229804472447,0.05762626102318418,0.09282230937227719,
TIMP3,-0.022265543078048868,-0.05967195705699872,0.0029757650228220997,0.03988876056379163,0.0347592049417821,-0.0506333907987539,0.12135852277697512,-0.025212663675731835,0.14073639927559103,-0.09327573985928736,0.004338862819849456,0.04877791990552489,0.027192004445107935,0.01584976693854087,-0.02572574494152843,-0.016805229946783698,0.08047962310436478,-0.07826557125941686,-0.009388988506712881,0.11981964666527523,-0.22770815185093682,0.06299397321862762,-0.11607883133824572,0.06289958403601445,0.08844309670284009
PIGF,0.025552544062682404,-0.055500622466484295,-0.002773829409144579,0.02915869341396131,0.017461115863274392,0.040522661442416785,-0.06768109972547676,-0.06055999169838038,0.14860494231347973,0.0020435807673778394,0.015212313545368622,-0.019723142906492738,-0.04480282000647288,0.03762443633479627,0.08538937603861406,-0.03759311011314581,0.045880478704563354,0.14146247507232892,0.05812332858577093,-0.019997075537121465,-0.04063117487498365,0.08317385129225163,0.158195604865091,0.1081119098935041,-0.005572984257402987
CRH,,,0.08355611192984738,0.006866846312373243,,0.01876527699985147,0.12622516863962432,-0.037127600431396304,-0.06397680627498163,-0.027196869400067072,0.0011905969315220263,0.035841042969040435,-0.041387426359734455,,,,,0.002092716299230876,0.03833922314979183,0.03421963277695203,0.010229989725928047,0.07619445589552239,0.010179230720912301,0.008379473717244674,0.11838837030607982
BDNF,,-0.0543166168881556,0.007951583295051627,-0.01970382766523708,0.057652839074498044,0.02319097148036971,0.09278338936842499,0.09101943095901659,-0.15692307021608,0.048506845645875034,0.028953614653948266,-0.006678167113591133,0.011159949195413441,-0.02955415741410978,-0.010857670475894343,,,0.09285937382507826,0.08641933945507844,0.07126725800471519,0.04202460240447304,-0.05594635198339639,0.08505768130448578,0.0842788747989281,-0.02630922648688767
CCL5,-0.005807681642783836,-0.00988630841952395,0.0215050188372076,0.07308540306767121,,-0.02830607947454652,0.03100444754234934,0.016771372532329805,0.09181097912069562,0.027251731445648592,-0.030292818770740117,-0.08622665884787903,0.0032508616098594462,0.050424154288602946,0.05657931686604304,-0.08478572715098671,-0.022459159076913617,-0.008596969877213357,0.013510620881204622,0.040016018238637194,-0.06629166716212297,0.03165468563303814,0.04707695033952633,-0.05362521657865946,
GAD1,0.0048706260223447565,-0.0586009222683244,0.0664409477371583,-0.016663157736499203,0.11799487047794346,0.0553826831781336,0.2654429378937997,0.0515774364711319,-0.1035558044760016,0.006729811315771711,0.007054113650477204,0.26009789358601915,0.13213611258229183,0.019158055410302,0.0982129672810656,0.032614450666368366,0.06123534796433148,0.06518123775012573,0.13981909967791759,0.05682932788015456,0.09197923256735345,0.09469920973382219,0.10926163298826301,0.05272825696042124,0.11566644890792667
COL14A1,-0.047155537387726196,0.05662998782767091,0.02788006097751984,-0.02748605042815908,0.05698903153811792,-0.0057129078361987514,-0.03286116570144466,0.04840109338009035,0.08027183077530886,-0.005651280601553817,0.016413164084119646,-0.06792944803827483,-0.05741916647800802,0.11581480979716725,0.1502137558377411,0.03653866585196451,0.09562644289944537,0.07224942410900385,-0.03521105925769986,0.04375445835146627,-0.06941862821519997,,9.8883083175534e-05,0.006536813282015667,
HLA-A,-0.017579368930055277,0.1153238284887355,0.011168875457978228,-0.022351765395461534,0.06069015238540203,-0.06274200260676928,-0.18667434807202685,-0.06844219701183496,0.3210077692760767,0.033416384655241,-0.004840525904083891,-0.2740199983735488,-0.13621055819809122,-0.00461960859375145,0.04415046710213277,0.001752977340214088,0.03957576542653118,-0.07690037450165173,-0.17141547253898842,0.13730536936221382,-0.09079379903980858,0.18107513699216404,-0.056079240109756984,0.02171250873791531,-0.023292836665621628
CD5L,0.021865479264585343,,0.02072657043029382,0.015129342440406288,,,,,,,,-0.024537280708618527,,,,,0.032838088096881365,,,,,,,,
FGF18,,,-0.04319303964960295,,-0.050108157980723454,-0.0019429873483260058,0.0818661935140899,0.025649989892981357,,0.11181391897769001,,,,,,,,-0.002493902642512053,0.038742994517154725,,0.05434137889513689,,0.09494044893041004,-0.002547518102108469,
ADM,0.062056167154643106,-0.06932208009166478,-0.05775163934712154,0.011127380507195236,-0.16310672235035428,-0.06484500492082988,-0.02218526664983389,0.08495979315758824,0.14679044761958307,0.01776796759965797,0.019546450360160974,-0.0317712596862557,-0.08654037938300646,0.12364996908356904,-0.034475285886178195,-0.016953644764032754,0.16004261475896744,-0.12558137484452686,-0.171983950470582,0.03252197436014371,0.02679942787246237,-0.020472278108712,-0.003039635714058839,0.07044285656504697,-0.009503357928569725
CCL15,,,0.012410252509432932,,,,,,,,0.07579536910186659,,,-0.0018777758711011128,,,,,,,,,-0.011060053359156488,,
GNAI2,0.012452351650939423,0.03638261503746153,0.060610132949425924,-0.013102129948062813,0.02364227971154875,-0.011008061983394912,-0.09869787188410588,0.004131222518323181,0.23321554530164884,0.03399720317667783,-0.049210417260358984,-0.18953324189340937,-0.0844747516922991,0.035442270128802106,0.002089935134361875,0.07117632365154546,0.11979079510889708,0.029303194071927184,0.03189916764104542,-0.0026804078673075896,-0.02466191320191744,-0.048378310850731056,-0.008559648602115073,0.06206540184336668,0.06289304473540716
HDC,,,,,,,,,0.10974899710673648,,-0.025866630021291755,,,,,0.11396195365501867,,,,,,,0.09777405297230979,0.0760707263256915,
COL11A1,0.1411515380840975,,-0.009984237186901775,0.08780792514352648,0.051725433195854424,-0.034147614747273784,-0.1471549004473146,0.05352362759479404,-0.06379815732605719,0.06934422258678322,0.03905068976655494,-0.0009295682975808518,-0.015058619149744533,0.1312699780456581,-0.02174440393290773,,0.07930369328580926,0.041747996616358314,0.08761319347717854,0.04776403651744803,0.007652395150442608,,0.03335530520509861,0.13443502402453558,-0.013721128639392647
NUCB2,0.03744397960090554,0.05696667692787597,-0.006402706963175146,0.04933451392353268,-0.011404919909386795,0.016226306723489608,-0.0007637241375010399,-0.005868952702846219,0.13316732062028094,-0.011588209138732439,0.05353792138450937,0.0693155773703874,0.03262245654241169,0.008412837002900223,0.032034501956885265,0.010537874294644775,0.056612765789093335,-0.08947311481039565,-0.04254850735173214,0.09703507535070464,-0.015094675898113755,0.012206131079727837,0.007010216073041656,-0.025789032042288367,0.008592118269212048
FGF16,,,,,,,,,,,,,,,,,,,,,,,,0.012073206723286744,
CXCL1,,-0.0010983398675504187,-0.01815680028518458,-0.0236289588594038,0.013286713803268166,0.026804271914227275,0.01706241396542858,,0.07916401820624651,-0.03948925542101184,-0.019177488735369445,-0.06043342086366115,-0.03249442119266798,-0.00623009504796564,-0.0027890874403614725,0.05616085293996761,,-0.06738851390158383,-0.08054847578124058,-0.010180055834508255,-0.025803613130166478,0.11160425912518684,-0.0046988262967789735,-0.011587255572887607,-0.06133470526986534
VCAN,-0.014967892081248999,0.0071635834002204005,-0.0011416012109622248,0.02366907916192535,0.13073931763242388,0.04988944789276094,-0.13111078460182587,0.007160329013984685,0.17546289354576078,0.06339254044251483,0.06408438228121868,-0.04796906443681021,-0.08605005703655766,-0.09280954386086582,-0.06284512671993142,0.08853202372306374,0.02298381476411042,0.07214037920295635,0.13294053750912696,0.01476500394513402,0.1428397261709454,0.11803779988446562,-0.17687633073687192,0.12130477632628078,-0.047607137292212484
MMP7,,-0.055013964699181746,-0.02098244536726926,,,-0.029686095336845575,,0.06057184666642717,0.002033300099823978,0.0011759038493630704,0.00951302907948614,-0.03524844517890866,-0.006062990226280077,0.12134102490988276,-0.03640696270068366,,,0.008670731162535113,-0.11652582489895415,,-0.025172521608883093,,-0.09989721279749572,0.054487844142786464,
PTPN6,0.03961382006441767,0.01182828886575565,0.012638937956145084,0.026083588235746497,0.09456341086253026,0.03623343653367252,-0.01648808757511925,0.03219385095548978,0.1497196382522295,0.07088585406488834,-0.05267333930369906,-0.08215108589403275,0.008772962868962208,0.13437927906679203,0.06287206336385438,0.001410422116003927,0.06448995165957357,0.09937164411901053,0.10303226714447832,0.02513204965919486,0.006393427779483854,0.06248837084683063,0.06419445632803197,0.06537029332539893,-0.030240113987185676
PTGS2,0.00719752387605727,0.005263388260006989,0.0034061149881800543,0.00946669917306829,-0.08815838772378336,-0.03336177483813759,-0.019958870834828422,-0.012457308449670074,-0.1699800661153076,-0.029816644888472632,-0.010058594300905905,-0.052674682288604426,0.004386079233493033,-0.018401377189374853,0.028063123594399633,0.08255673739423651,-0.0030741180808913087,-0.1250829110363815,-0.127795440708636,0.03200807415585304,-0.033528322163858065,-0.05089425608292704,0.021281610491454786,0.029088802631956446,0.01550819768452735
XCL1,0.03292663230737804,,-0.018909628524792856,,,-0.01574187846269223,-0.02546440150517377,,,0.04428754314751513,,-0.032889253876078745,,,,,,,,,,,,0.02593859366844522,
CD58,0.007399099053702703,0.030134097513554475,0.01649730902729905,0.046317173944832236,0.02788692751574963,0.0018317294023579656,0.04294860006972225,0.004880769455306018,0.2580190897761825,-0.027674746435585283,0.007127541209194247,-0.011345577753031407,-0.05065227077352496,0.07472702457151104,0.047468035674948825,-0.01217294000851222,0.11478174964122406,0.06201490378052188,0.08244471389868085,0.027608133179432854,-0.00975622304279011,0.10460337354708801,0.08763893726219982,0.15359142113661545,0.04758129579237317
TNFSF14,-0.033190159334011475,0.04501001654440461,-0.04196783836030714,-0.024644225094829976,0.12090887672344627,-0.006152626626474006,-0.009514409488950753,,0.05752622900386692,0.04729201997394344,-0.043918002213451664,-0.03341576671434845,,0.019168180892934435,0.0033156199764063214,,0.08348498051689676,0.001342057021213377,-0.005689442385273587,0.08345393127229171,-0.018285957063255278,-0.030135604087183375,0.014098647381435165,0.10664204118236437,0.007459716879149301
CNTN4,,-0.03037240251308597,-0.02564487730522346,-0.019291420788652806,-0.026469469826761093,0.004084983393616223,0.20310832661277706,0.02872873904518438,-0.07678692936538209,0.06430458174770169,0.05311748085938325,0.23192254316587085,0.054102210472743814,0.03223403132299,,,0.016653454341503473,0.02448464563074931,0.10126379333484334,-0.05545705668394095,0.0390011997022909,0.023404555023822285,0.04407856142004815,0.005380038237953973,0.005867007590032798
NTF4,,,,,,-0.014729575039182473,,,,,,,,,,,,,,,,,,,
INSL3,,,-0.03512071125879108,,,-0.04312719097687603,,,,0.026590865473072073,,,,,,,,0.03242755601448584,0.031744930989577175,,0.0099338555576062,,-0.016700834414719385,,
BTLA,,,,,,-0.042517889962918165,-0.026547486276530762,,,,-0.021636113147243435,,,,,,0.01836598360596957,,,,,,-0.014268694853943137,,
MFNG,0.01851257544864722,-0.02164663237856504,0.022680836913259617,-0.02457301552270311,0.030344855695698954,-0.006060194726706233,-0.016479276797262965,0.0299645586411584,0.1860826173602016,0.023072508118007873,-0.015429304605447428,-0.07714008785917212,-0.052856319863202245,0.11446954406588991,0.12103989610231679,0.07203874553185624,-0.022171475844831402,0.12182050292141937,0.14969087678826595,0.003999801647497748,-0.0054354644294222045,0.06195958857800181,0.014227837926399292,0.003123502868329993,-0.016939645264598433
ICAM1,0.03950565792272638,-0.025182267974246473,0.008456507457889626,0.029830801754714746,-0.08992971542557116,-0.047739732769102886,-0.05546347415082943,0.03077632647983285,0.19884313709702894,0.004195163489637268,-0.008670119292404278,-0.11070918219554639,-0.05570748639781652,0.08475495346460436,0.04484286187667001,0.059012521852548835,0.08281345076250086,0.00025165263891934164,-0.0449416757594775,0.08551773543534674,-0.003754578535419631,-0.020502545929917244,0.1355570027096064,0.09433798012924786,-0.029201219348940093
PROS1,-0.027991010751398558,-0.03144613284059191,0.05671931749183935,0.00456801079565467,0.08889989211546256,0.005958961360981976,-0.011887203424838429,0.01993284045204432,0.29698223306313526,-0.0047399735075596295,-0.008306598372916694,-0.08740667675757884,-0.03234060983251118,0.24605419900725947,-0.047238742877091254,0.006758726199948882,0.13692709081862384,0.10807295697772491,0.010142909538708172,0.08310224052333355,-0.10389917262334279,0.05732631039014882,0.01832172775320611,0.1844411187590336,0.07032842225023467
CLCF1,0.01212644635408394,0.0377566593028862,0.003992932568852509,-0.03585012334888436,0.0008594466513430301,-0.025296904113202068,0.004162558199866725,0.007585999648214125,0.050220716757665325,0.035539528459521214,0.03407148204406573,-0.07349430695840131,-0.047694007683067446,0.13019648572633427,-0.04356100909354861,0.051072766280880366,0.02510401397764139,0.0493597860755817,0.11272646886617342,0.02329423330363536,-0.015908056749748326,-0.11304139751039245,0.07738686368110237,0.13615114665883132,
PSAP,-0.10175988336550064,-0.098495543703483,-0.009691663294326587,-0.03230042097740967,0.09097048130602861,0.05296141857632471,0.008909044730779256,-0.03386435542015039,-0.17566911055801226,-0.013832573578409153,0.0007923923233491257,-0.028873765002801415,0.09513865535250568,0.15890611484745004,0.11447357544972069,0.06607447355564802,0.08423219997363356,0.05474862601967739,-0.01330747011721419,0.03534328984192771,-0.11556147361603597,0.04471257606392384,-0.024862403853163618,0.008999004392677742,-0.15305522699997365
EFEMP1,-0.01986024514451696,-0.06664737690134537,0.004009696038380847,0.03549922053123532,0.12591216305052935,-0.04380145542053963,-0.14641083972264576,-0.05198679996314544,0.20396708780645398,-0.011147540553912155,-0.026308443709313515,-0.23399761559274743,-0.11095375260966622,0.1039382087195951,0.14579171853252582,0.0022238977678306375,0.11697405195811404,0.15534456219318413,0.049000807771433244,0.09122015383122366,0.006195519446571165,0.08788823079137593,-0.08378459677718457,0.17533421125764256,-0.03629616965016825
C1QTNF1,-0.020791640163262123,0.027046896708947315,0.03314370348932562,-0.00738073186919808,0.052319323409312224,-0.0033882895311746633,-0.02843188410443932,0.021138072265843195,0.20086682393095384,0.014299907415401984,0.026689576681706937,0.008821316997039292,-0.028822180161637442,0.10502096022733569,0.07016055223337779,0.07161879742192086,0.05565658309329448,0.06506949497352464,-0.13221958672077463,0.17817765594405777,0.037643123974151274,0.09983860027158735,0.10069006599073482,0.15255747313361792,0.03783297500517253
ALB,0.07951794478513297,0.000520218738245754,0.05784105201733595,0.0067044848401357614,,-0.011237928066245814,-0.02647413186254487,-0.0178733588330469,-0.07165042761037438,-0.0121861342471235,0.04180157814227075,-0.09296163168552822,-0.04980714246664302,0.028434739492130608,-0.05314094467118198,0.06327213006879447,-0.02649767384093,0.011680311182439887,0.017400852668231808,0.04530450738481298,0.022813027091946787,0.13073794668332242,-0.0020197049122500435,0.0087308017458053,0.194334164780349
CCL13,,,,,,,,,,,,,,,,,,-0.0014010036559355035,,,0.025593504673182527,,,,
EFNA3,-0.01533456872452297,-0.08029797571840491,-0.0005815186715281671,0.06251018920884821,0.09626430876116507,0.012829671130377076,0.15141800088745916,0.046473897649118114,-0.08499012075614029,-0.04119760615601505,-0.008894073979280404,0.206706977198464,0.08813856196686047,0.11407562841313452,-0.003985982670140478,0.004177733231402498,0.16768487974899068,0.12499104620526483,0.10778531158098821,-0.06108996809411393,0.16755128454492293,-0.012721590511554737,0.11330150954606481,0.14787149709147976,0.10995830852821828
DRAXIN,-0.03005987006409075,0.11603477237803035,0.022859340907421085,0.04313328691358076,-0.009860565144888353,-0.00752276773896592,0.06979078731357483,0.07151109445920047,0.24305986127638987,0.0010424510060006412,-0.005731305168616463,0.02283917634788713,-0.006730506786067612,0.16478752544501635,0.01859005859068639,-0.10128390954194334,0.11805736692449215,-0.0028605791106644267,-0.05234648895862532,0.07008917122524042,0.1284507021169382,0.0023320865921959283,0.19031560075457957,0.1443714010019773,0.1533011588561458
RAET1L,,,0.03398005476806068,,,,,,,,0.03372831095099276,,,,,,,,0.04987141344603783,,0.025179974620248815,,,,
NPTX2,0.04276962458725602,0.02397759119592681,0.0025512970310228008,0.012906587662610408,0.11916648364293575,0.07367772861358662,0.1744171099302666,0.009765167592084779,-0.28267109854244477,-0.06227921553506057,0.0021585780201195137,-0.05518466422218395,-0.02472866448853183,0.13301993653363894,0.06406042430945683,,-0.055960119237918916,0.06404101580668599,0.02272772958437168,0.05951977683943331,-0.042341888472867746,-0.06342058111042707,0.044505976004483236,0.050704802570060346,0.0017974967355476673
FGF11,-0.07625601256667959,0.02144561885218184,-0.009958031259738952,-0.02627608456055451,-0.056839080273696704,-0.031778299177102017,-0.0786149807176483,-0.02305472557994308,0.2369231806886565,0.013722355494351092,-0.04934922762491899,0.045661066832803965,-0.06233679570685328,0.05317063344583373,-0.00735860125931105,-0.003903241403997132,0.16316418890417092,0.02279828240464094,0.02706297389851619,0.09308722722760226,0.13257766187898407,0.10910466797734467,0.09083262166626829,0.13166920912370664,-0.01963614509721709
CD59,-0.004345572180959923,0.045522284876998276,0.038087045959441485,-0.0013020094059035545,0.03457717596376164,-0.026634319126093542,0.13506364297442788,0.007899832458474023,-0.16450505765269094,0.03887646088830549,0.05730990286977246,-0.12292712963112525,0.05898377461980225,0.13962077001612416,0.10439048638761156,0.07875484565826274,-0.0812935296158106,0.07295728579056934,-0.034990193198375666,0.10896811806341267,-0.18760538687876932,0.09154999313778171,-0.08391157342637634,0.06798478499299426,0.07303453099186434
COL9A2,0.03543096319883377,0.010328030386729681,0.050382628111087464,0.09716419644853592,0.1212001507709452,0.09681546044103041,-0.038522382382697055,-0.032447961118642815,0.057451175128529076,-0.009860366757540668,0.007359386024232638,-0.09396993795014345,-0.011989485196209721,0.0994637320035223,0.1164929427022301,-0.07411649883398247,0.007697113926410911,0.17238022354734645,0.1821160237376876,-0.008154258789058498,0.0486726783597834,0.0789240065375771,0.136423742991249,0.09311318681604869,0.016658357764423457
DLL3,-0.0923426054642723,-0.07207671766866013,0.09076286254448655,0.013227864150710998,0.11534365766660841,0.07408115593245712,0.011302285942026957,0.010444703895620758,0.12120162454660859,0.024505551379389038,-0.020819068776409495,0.1021589137134751,0.05794642589061036,-0.08710539524740281,0.05769190742785637,-0.024714476026595322,0.06512583622483864,0.08737046666020395,0.22959544678418828,-0.0024049898012586837,0.033874641266439354,0.007188784228911365,0.23752215321216327,-0.018132454689990637,-0.041442868647625405
FGF5,,,,,,,,,-0.061140642008668346,,,0.11681893272126989,,,,,,,,,,,-0.001730532255442662,0.09409631716724395,
LIN7C,0.0278291204371513,0.007145191813280165,-0.027014948857872555,0.021596249508334088,0.1083187935183354,0.022552247579152262,0.02138957940333942,-0.0310840673725264,0.10375121430958546,0.005708743381498664,0.012648671814261596,0.07360558157993008,-0.008556632875933482,0.08395927893889392,0.04575131103861026,-0.08771867261686102,-0.011334392474372571,0.21571806995739554,0.057477665371187106,0.024134493819735186,0.09777384996146005,0.03724779726527534,0.09065767943721832,-0.026257578071472488,-0.005708367658782746
GDF7,-0.01196654011627895,-0.013167625133504198,0.0458208220217306,-0.0207010672610937,,-0.012361775355151112,,0.035178810759617554,0.12616313607413873,-0.034353903919751384,0.014930106183990688,0.08311805773105976,,,,,0.0974431647980317,,0.05107252866832971,-0.029115150468385306,-0.022404351989168445,,-0.03339164436516027,0.005054479216864809,
PSPN,-0.015726814135206022,0.05208582602178613,0.08955581949264865,0.01686845253449826,0.017478620509181808,-0.024259715939299868,0.006095078102008898,0.06449728473363339,0.05744382819546352,0.027131283429467915,0.013382525036139578,0.043941509419062864,-0.005642996485157756,0.09686092200612158,0.11100145833030715,0.08498630419526365,0.06771620965958562,0.039941513841825226,0.12629248977773386,-0.036181238257426154,0.056966891590136036,-0.002601806448122408,0.1575477367935784,0.012011976350843561,0.07750613810326909
ANGPT1,0.013043418268665603,-0.04689149619065542,-0.0002701070317071731,-0.00013553628443303497,0.11325624119532267,0.047176188848273244,0.032078900273964005,-0.07274695144460179,0.18943701362438375,-0.0006860215062554373,-0.05908123493340008,-0.10439842869816678,-0.04795605531487177,-0.042485703426785454,0.04841527611598228,0.026060684101805023,0.07482820850482323,0.054549294187605915,0.04276725364944677,-0.008973590579314975,-0.03140316279257915,0.01396078211916372,0.07773610553100975,0.07726039705087252,-0.11392351730934526
PNOC,0.0995823681438298,-0.08172378811669943,0.06702841465744659,0.014057552263572002,0.07842400356394545,0.05706172422559473,0.26107824463663787,0.056598367212565975,-0.15176755967059694,0.007967969211685839,0.035317370950176,0.13476029418418475,0.09356123159700967,,,,,,0.018343132117368557,,-0.013128910475319758,-0.05594638223311545,-0.02826225117204802,0.08035890075838277,0.03456087117654247
L1CAM,0.05072591880562445,-0.10001509155878893,0.04439106193445143,0.029668398259300496,0.04453629088713126,0.03178059209912271,0.12603453357224412,0.08469727510871017,-0.10925813345760298,0.013170521405669969,0.026742335087675508,0.18309341226400985,0.16418686584321834,-0.017137137609867042,-0.009439572849923182,-0.027690853618680563,0.011255119788022731,0.12522149939693877,0.004732963126332876,0.04485740258769543,0.2938950356194894,0.02230817919875952,0.03359068053940393,-0.011816047820821851,0.18745896026333236
APOA1,0.024506775994981116,0.190169360667714,-0.00773540174983392,-0.028668199092744057,-0.0011857911972249743,0.03964486969582847,0.04618514542819665,-0.007300809594897528,0.051944213536299196,-0.021684892284871957,0.0538627522445424,0.09047281430560615,-0.012080558279854488,0.04087917690869382,0.0011643586420362574,0.030481755289531263,0.0816452568333151,0.09713977926250882,0.07909211754137636,0.02627093587705098,0.016500412674342727,,0.05912915481202551,0.0592923233236119,0.011765260503613473
PSEN1,0.007244429641002555,-0.06678179141775654,0.033434006611768013,0.0002813677782650567,0.03897947448375585,-0.01715155391092372,0.10056104635292064,0.007855092276662826,0.010078690877720802,-0.0019032850392363195,0.02277162669586007,-0.07560894823485322,-0.032574939346444294,0.03956026462095991,0.14232350828759346,0.010820628561193627,-0.03603853759164413,0.021249867029221554,0.10106538833994283,-0.047844981434119235,-0.08656979470504415,0.051280442756966735,0.01966854701649615,0.12961131186369035,0.025800201687580973
CALM2,0.029841336352766524,-0.035589149152647756,0.05599806577696522,0.009464735002246972,0.15244755042987063,0.027118413644126045,0.17023389164277505,0.03481435504990794,-0.34051393659636875,0.016863072440342335,0.0350400219367408,0.2764885654472271,0.17488164175345022,-0.07120185441787687,-0.0038426550972562082,0.000615254108407197,-0.17657749202916878,0.1640826517038909,0.21213030043104936,-0.06654543273164387,0.17676743492934013,0.10437866428563436,0.20152808979551656,-0.09623407951005807,-0.011712495956501761
CLEC2B,-0.03473917701054868,0.023190899997321962,0.006254917890122567,-0.01039134621684113,-0.006645692372965447,-0.06621596302410739,0.013868004132531085,0.04622537528270014,0.25572295349651075,-0.05632093232339713,-0.04199383547816599,-0.042114820862698424,0.013084890590728721,0.18551113579167933,0.04640388768508234,-0.029367448601039906,-0.03136616687021024,-0.07102522043123556,-0.06720472980413485,0.014493901725016923,-0.08464558247388193,-0.08633781731488648,0.045418862178475544,-0.04815252421079513,-0.06453735185759914
NTNG1,0.016722153047814287,-0.06505436889535077,0.05444042920941513,-0.001781503470572973,,-0.03231482953383913,0.04784919247419583,-0.03117590546426621,0.02233847360643566,-0.0038000303912626354,0.027749193654645895,0.06942342864597922,0.06782097854626544,0.016738623897467622,0.047011834892295934,-0.06726857798237437,0.05510949035289996,0.09185826825616684,0.12903885488974062,0.06288196945696319,0.054298496559343004,0.007014756150543232,0.12921757834515415,0.11422865878302678,0.0030706963530850485
LRIG1,-0.02105028951432416,0.08355918749323106,0.033445108305596286,0.02058489852752906,0.15005713366464493,0.005045291140858464,-0.18115073090803105,-0.03427233049549492,0.1727973172591664,-0.020472588901830666,0.0010369084178106845,-0.11880182290608395,-0.08676615319353106,0.04012955635854297,0.09480901047644795,0.13944335148371667,0.191218978630355,0.14129855944995337,0.1523960363390144,0.07348843277937238,-0.06840650626883858,-0.011313873657591558,0.1851239897700521,0.17025509688009183,-0.07839024728785014
CPAMD8,-0.0347956650029509,,-0.03721158274213954,,,0.01673720247729169,0.10732450150121221,-0.01833458168800374,0.00399673485780594,0.05610729928058731,-0.03247204693462739,-0.024076718087562468,0.004587838966190483,-0.01916056816509005,,0.0509264463333786,0.018229986388065448,,-0.00657881428165456,0.01035313119617838,,0.0024985348702653036,-0.026720870062954014,-0.026328421215613306,-0.09101188330172692
GHRL,0.042158273625684584,,0.02929854423145292,0.03879661637178159,,0.03903732672716001,0.020289517351896127,-0.017733057486543625,0.06857025767974886,0.009153819928027338,0.054298670037121105,0.05235718216251837,0.004341307804753916,-0.027065394289504014,-0.023004400710738993,0.03109368574789394,0.055738157001749916,,,-0.014854504387939586,-0.03308138551152641,,0.04204607890222075,-0.00883255047457923,
NPY,-0.0665340256859505,0.05108534949864415,0.029467151371654766,0.0019712178631419047,0.0411060811993059,0.0877285964906372,0.07476804619663258,0.004342207101689434,-0.16146393285916089,-0.05154970295251945,0.005178947416573284,-0.041470806952910964,-0.011711010745618096,-0.07280421096344489,0.06273420467300332,,-0.01815371000611859,-0.044611456037863276,-0.05876166487139976,0.011772723878590794,0.02962898109326712,-0.05282319401562763,-0.024590100995511163,-0.045513304233035755,-0.048228582133235644
MMP2,-0.04998078345735241,0.09770070246513794,0.04946956280360353,-0.02542778307252507,0.06698529445575406,0.057768138708271244,0.0692011493979476,0.022993526653970763,0.25211835563781415,0.037867279622766536,0.03133435521949089,-0.10284116889476722,-0.08739020285722014,0.1367096857149648,0.05524123213506981,-0.03681297948031081,0.07562226916461337,0.08815454509462302,0.033974693598845127,0.12208672631991559,0.004784952534214812,0.076237302329733,-0.033843432585877534,0.1278513962878754,-0.0091777789791253
LHB,,,,,,-0.002523515381201764,,,,,,,,,,,,,,,,,,,
PPY,,,-0.0009147471315348915,,,0.03194300067302284,,,,0.03943835589571386,,,,,,,,-0.01392553958115289,0.04071064555674788,,0.016665464387134933,,0.06404706543806316,0.04120595504583927,
ALKAL2,0.07114895995496527,0.041732366690632496,-0.031101803620249863,-0.016615998145087588,,0.012432712549383452,,0.03975768708318142,0.0016411148891529357,-0.00602095955071243,-0.01872989554225566,-0.05688171716974662,0.044310400704509985,-0.005839525866770804,-0.032135927972375807,,-0.028192351845655682,0.02243856731358144,0.07467612187941651,-0.05569326067314448,0.07365640238675794,,0.1154949891137332,0.04764848237667217,0.09417162293550789
CSF1,0.0567784584197241,0.02214043476524456,0.08212844095679901,-0.016597316924732933,0.05152067879150174,0.015389213259054901,-0.09070840482462673,-0.01911111166458962,0.13562221652697543,0.06298938305656956,-0.0496973298232688,-0.18028142703442013,-0.06473463777400626,0.030594569669314575,0.09342240514182519,0.034211597385978475,0.06902591916636037,0.03095018535386354,-0.03025353874024112,0.10490027660470552,0.028654613467590167,-0.018322481339747523,0.08980378029467075,0.16122596664825606,0.03436458187308726
SEMA4C,0.06530117650684585,-0.0710790593369843,0.029227927633078216,0.059254732269317635,0.03935951446226325,0.004415465850113463,0.028134807347692876,0.05247677960586755,0.055277800409260815,-0.0017111229908664584,-0.04199218686888665,-0.013456793906193225,0.022628830309543244,0.019168784691611783,0.08127426371888052,-0.0712064054230594,0.13156216772993748,0.019010009576902055,0.1415906670514985,0.06485830562894454,-0.07421228400614377,-0.010417324405608535,0.10328163051041965,0.12340830262408056,-0.012409098423732588
BMP8A,,,,,,,,,,,,,,,,,,,,,,,-0.0546101754308225,,
ICAM2,-0.001431933313082043,0.0032089308830243433,0.02974855413089868,-0.024714834540666267,-0.022443949379371508,0.042788986250579975,0.05766157485653549,0.04160139532186581,0.1787872204023518,0.00899061793242994,0.02218676970723584,-0.025394712207832713,-0.03546174371487,0.008697985338380822,0.08833044511812838,-0.006633731075334978,0.06346269836239442,0.09438865110138533,0.01052852654901245,0.017695186519224224,-0.03017927250003913,0.05875540957331457,-0.032154631142905336,-0.035651717687505205,0.0816316561224207
SYTL3,-0.032458302732970026,-0.02935512882310379,-0.011065298579056285,0.03377018833202305,0.008287252890874548,0.002083999972427754,-0.03731885698079855,0.01904324355827011,0.12625705568056203,0.04210617894078934,-0.04604332931039738,0.009088708511716106,-0.023851065629844483,0.0562422361701639,-0.13155562483597158,-0.021729926783258066,0.046906481890042595,-0.014274890310714945,0.0045712466321335835,0.012537165739771611,0.014512121350716294,-0.019385604906436385,-0.021953076741108492,0.03799199797245284,
IL1A,-0.014730025472087904,0.04637377558272119,0.009499742449442645,-0.033154969551795636,-0.01690473500784196,-0.006972089226446419,-0.0619776462555245,-0.007241205436830294,0.1116901992401148,0.013640587781481483,0.020684839168059264,-0.027839737319038316,-0.012457759960599038,0.04646591696620468,-0.02525978530209221,0.08816056950674868,0.07009713712077857,-0.03413721510850983,-0.03620242095734215,0.07728881424779745,0.0031038726037911565,-0.0754824479977643,0.0617254669258631,0.0969901601545715,-0.0017998322816089427
HLA-G,,0.12288447932523125,0.010730877798129116,,,-0.046923932197954446,,-0.04240232613830794,,,,,,,-0.06272951415766882,-0.00927282797709737,,0.03657076721404443,0.017959010622466184,,0.02986465716175098,,,,
PGF,-0.02863693790648308,-0.07722979149642648,0.04726725275271486,-0.0027944316959823846,-0.026434000373426147,-0.018798309006359197,-0.090908237984544,-0.0010016711838617062,0.2511304470337391,0.028774700317566758,0.006046948370478705,0.01409384326059382,-0.07457156253470987,0.12261169736333107,0.043912588971095054,-0.031966391796032716,0.16977848414541583,0.050948950477527,0.04028078778005289,0.04118056754951213,-0.07996321509105656,-0.07393333924368665,0.007321555005415145,0.008934708628870294,-0.01853329491909918
LGALS8,-0.004325813384966159,-0.019073152084407498,0.04016953979501419,-0.014968783196001211,-0.03348735580163945,0.01996709640293887,0.020896326117125986,0.008893155699053974,0.13098599718581433,-0.02355857074494315,-0.037555002335741,0.08328441288272015,0.05579863908859306,0.1208756320099691,-0.029571835069578382,0.05070849598607043,0.14903699897864542,-0.0274372887747672,0.08207239607548526,-0.04406488387563527,0.07368705701824602,0.11811380416833821,0.05807770388213661,0.010508607140578927,0.06927697321761278
DKK3,0.00282694160856403,0.04579185973512033,0.004326507550432396,-0.0402799639080743,0.093160110308123,0.04780783202144247,0.15457787989191105,0.005788427962021831,-0.21196522907175408,-0.01626123290486475,0.0847709763760901,0.21912154606573728,0.11932647661082495,0.07640058364428101,0.10019414027478647,0.03355239933443741,0.08637790969826148,0.15260860381065017,0.13019285264889707,0.01818863283337826,-0.14800690914092005,0.07280535049810016,0.09591207661465494,-0.06362546190635165,0.12282623841023348
COL16A1,0.0411685029477081,0.09566631415265779,0.040445893001347384,0.04073913517864517,0.07676403483394395,-0.026418949537663675,-0.11602817052248753,-0.007637436320225666,0.013712270959839587,0.021529979792661767,0.04979148505145227,0.01799840589823002,-0.07852915679913629,0.0566481890284398,0.047295770495599555,0.03901160218576095,0.0049250225380522775,0.023822348323637586,0.0942384413083952,0.01819617090905369,-0.013415169525517839,-0.034485861759774875,0.045972784012248934,0.17352717642359441,0.07961468016261518
TPH1,0.022197918850327403,0.008506650520424423,0.06564685573000126,,0.06844075208512142,-0.0180256128673211,0.017284982663356274,-0.0008959059257187482,0.06195088508688237,-0.022859326390307206,,,-0.016296535956431886,,-0.13607052955530485,0.031558072850096916,,0.04671624015316779,-0.009839535318100551,0.045837024587844416,0.04195185581467592,,0.09802901730420074,0.061790132190930484,-0.029850164437307942
TNC,0.012808561055716311,0.0508058028590965,0.06249202013846428,0.00216955972822334,0.04285706657791378,-0.025227389409848085,-0.05399561117867815,-0.019276341177148677,0.3043513467018416,0.08736165183399866,0.004635183505562006,-0.21336151392657568,-0.12455792028334631,0.07257828124132323,0.07033225840316164,0.08984084675538731,0.2727721607029562,0.034863261395580894,-0.08917750601334194,0.11084952365125411,0.07677140751992283,0.04445806546073493,-0.020561657488593958,0.17174490059949038,-0.02384406350472795
TNFSF9,-0.022942434420969503,-0.07241453314651705,0.01721179757238911,-0.01637160543028609,0.10570881975917777,0.010264138315414196,0.1568627050304272,0.07452195749704633,-0.10453980528451792,-0.0332389837981837,-0.0034274494936549923,0.1014007324171834,-0.002101287033531892,,,0.044366205687128075,-0.057763659488955295,0.010013754598653345,-0.019624863314522147,-0.018517058163670386,-0.017240084485554263,0.11730056309178073,0.07916876152449476,0.018770750582358317,-0.04815212307590558
C4A,,,,-0.01637432138514413,,0.02254923394490341,,,,0.009557696015090256,,-0.027142024453025496,-0.0320112062921524,,0.025962213315722453,,,-0.0103892512206519,,-0.014267749481812952,-0.0613287665268239,-0.023082486666419353,0.033065381130316165,,
CNTN2,0.0206446178102844,0.007164486786038489,0.04958716139913189,-0.015185629010499286,0.07624099296386601,0.024099070351298813,0.024695907723256607,-0.01497200851831996,-0.10025292953089017,-0.019079767681154713,-0.04116293966621885,-0.20921384450663702,0.06979893738004725,-0.0553741084190338,0.11848181151181762,-0.03180629250772419,-0.14207351836483598,0.1832732412818739,0.20392935357876138,-0.07224235124111608,-0.0019350239166307057,-0.007357846568249108,0.10501883427447647,0.015245749643925872,-0.04379598904276314
F7,,,0.03221778313141045,,,,,-0.027663077622153375,-0.05675608916391498,,,,,,,,,0.038132300174898125,,,0.024919150457970482,,,0.059820556073480455,
LUM,0.03625047450583579,0.06205156974762341,-0.006185740319443283,-0.024141448554369043,-0.010625484687153653,0.014117123486681118,-0.04579968812813308,0.05219459311137321,0.26399546350857356,0.024261028652756433,0.019854842409266507,-0.03156490399693419,0.00018651399875476888,0.12656573883635872,0.097690341794272,-0.08714623199549414,0.04375670004955738,0.0763663355015545,0.09107324094143014,0.07194961459463657,-0.014684358495288593,-0.034965161525057235,-0.11759642039320457,0.046299072630504305,
IZUMO1,-0.030450754057724842,,,,,,,,,,,,,,,,,,,,,,,,
BTC,,,0.03593093421838329,0.06334218334666364,,0.000243488253110414,0.009704266695840855,,,,-0.0006176063411155491,0.04191009016958281,,,,0.016166202208850296,,0.053183737209506386,-0.010433883397004943,0.03936265006650853,-0.020953696140328937,,0.0888523289864802,0.07217071997494591,
APOC1,-0.09733153055461334,-0.052223193463560254,0.0048116194237429995,-0.06184108438917341,0.12654307832665826,-0.03365108527239838,0.15284200104083284,-0.004269605955671113,0.3611648959807559,-0.034587414196619,-0.02449331389813162,-0.2841856035501326,-0.09267178506242854,0.17040011359315566,0.00465259111884078,-0.08021426447053467,0.09694641335210767,0.1272750837922898,0.1469796572743233,0.07481568502879304,-0.16126611552751954,0.07865472277142153,0.06009462849001726,0.02222994320358593,-0.1406646120139281
PKM,-0.004596753226034738,-0.027044306001397168,0.011025212402366211,-0.05427990779874989,-0.019960666833005482,-0.0001032438113558161,-0.03472375498540782,0.0258833692684573,0.12770333941228273,0.022960175837187798,-0.002678230610409835,0.2271611047406347,-0.09946372792877435,0.14475960693728232,0.007098185631181004,0.021769295248276144,0.21155147401569316,-0.04371129176500686,-0.1531378170827922,0.10426511980377637,0.033433085340118296,0.05851104465530074,0.010285337493627453,0.12997698249649856,0.12711065712442965
TNF,,0.13468435272735116,-0.011401590289920605,-0.03635780293298399,,-0.004126570121581392,-0.03055717717596213,-0.02710000227904056,0.09682415161569402,0.025250460183812627,-0.04007585687341958,-0.04946490841801952,-0.007586314949329702,0.05985896194404977,-0.012144703764082368,0.10473525415805786,0.02805202475902612,0.015179826035138124,0.004737488092531897,,,,0.09509991295638767,0.04278897873466948,-0.03340231929441813
GNAS,-0.05391538594647241,-0.007394236042136657,0.010453967801318333,6.293556821925652e-05,-0.06648269403773707,0.03774483770596329,0.1601335997378184,0.04215447697215569,-0.19567856350354232,-0.008066762287170298,-0.022940525077032342,0.2611883391147978,-0.07900757134951304,0.199784315476213,-0.023387710157686717,-0.005361740242389813,0.033249806317452016,-0.0319016492513335,0.026373990164679426,0.11089718349782565,0.2283065922180221,-0.01942025790156918,0.18535458191222634,0.015719234439372485,0.030186418563906657
BMP8B,-0.02579247995195756,0.10310389324910123,0.013159329922209138,0.025800092370696744,0.006169556921169787,0.027085627360947415,-0.05383088534498124,-0.004686343088181424,0.08678716845553268,0.009744356726809228,-0.03639684459888402,-0.024707433986202863,-0.008416243196282905,0.04065652234519145,0.09582404855309452,0.09388868449947868,0.07162611945219241,0.014486874543799143,0.05485761943735626,0.0208658946284822,0.04430104969943133,0.05832321271686996,-0.02795666617386338,0.05246342299612146,-0.012978924027794696
LIPH,,0.12460701070938199,-0.016092377909289062,,-0.0186368139920984,-0.006536353163255898,,,,0.022840554411770752,,,,,0.0859546770380805,,,0.014782486287199813,0.024475980610744654,,0.007645069289027217,,0.024886685903548277,0.059888442595500795,
CCL28,,0.15035680742112964,-0.018999939783434307,,,,,-0.041094079087517665,,0.012164626005036667,0.05727434959974263,-0.016343806888560505,-0.028879613293609923,,0.12256183910346682,,,,,-0.03594296056991866,,,0.0029992100717804314,0.09899584867260466,
PTPN11,-0.012818147125035139,0.04074901813270064,-0.00703676371588306,0.019541432816286917,0.06150345040865306,0.06632647241484015,0.05072396042931717,0.015057710792957901,0.04259184615122051,0.0594336695839843,0.015662852047167972,-0.07349853391964298,0.01908817322484151,0.12613389666477903,-0.15113150150880764,0.03903059913251272,-0.07140811767082672,-0.09089351411243735,-0.020004773291164357,0.03907772074976209,-0.06866466119412928,0.10462725427264019,0.09286560257824458,-0.03296188881597555,-0.008022497411347211
ADAM12,0.016897194303843024,0.021951552519731757,0.016158431404064356,0.04615855592422859,0.12870602848906845,-0.0727283848620093,0.07133929426842796,0.0023841635887581845,0.23537074698872576,0.008503254602358285,-0.024393641915065916,-0.03078123914530907,-0.05430367936444441,0.03582826802116673,0.07576239231759731,-0.014485480020836059,0.07651863798375547,0.04723786483271437,0.018992879404388957,0.09660146650595712,0.01379617146221823,-0.03563403347456006,-0.08908759129516543,0.12794346081941765,
EPO,,-0.06065718818359457,0.04023340784516117,,,-0.0011826801820480255,-0.03405570500318206,,,0.01091177268870065,,,-0.036416186141478624,,,-0.09328608110318867,0.07245809893239222,-0.07253031525155654,0.046898696358794414,,-0.0295059845458949,,0.010131142371126466,,
EDN3,-0.026876674379091935,0.06585972160385796,0.015337985136860967,0.0053660866264318005,-0.06958676252459359,0.008291356946935833,0.07323266758474115,0.09809944192797741,0.0802594546004579,0.0317924748429941,0.03610997999673194,-0.003380943825316701,0.04203440567664948,,,,-0.03468805602175798,0.046381898249069076,0.021952635343108262,0.018395704064768415,-0.04243874058789027,,0.014853249587239804,0.006472907874953833,0.04703732533080297
CCL22,,,,0.04280610197230368,,,,,,-0.021488239407584396,,,,,,,,0.02147877464691881,-0.052316061097652855,-0.016029996902775935,0.0001441216781177768,0.16810102421539636,-0.038850033081537345,,
CCL2,0.03588602363041277,0.10673232237496864,0.04219729535579078,-0.004376289917852137,0.014115074880702086,-0.04188017619177409,-0.12470098374856443,-0.016559548907837673,0.10446713745809874,0.05511989619438512,-0.01740098471267454,-0.18981152343268168,-0.07928301830221363,0.08792864388305212,0.08591958478065564,0.047495358480309176,0.04048986480187952,0.025734057608902232,-0.0870970575169151,-0.04968010378101638,0.033180957491879624,-0.1890727827384364,-0.015512351077875167,0.07272989134851614,-0.17887700164908962
DSCAM,-0.09705667271590017,-0.031949720475691716,0.03455449401992142,-0.016836794615058298,0.019764564829693625,0.03438891515049347,-0.05312799352193217,0.0025158771071322195,0.11609599315655143,0.0136345059615818,-0.04051899413217488,0.11211751182369567,0.041173825518443494,0.11216195105372401,-0.005558026658650785,0.039696991676186275,-0.04366783742353254,0.023186803975845473,0.13756763015623613,-0.007598870515092838,0.03794777716678138,-0.004899426176266079,0.14485885317410857,0.1886679707033685,-0.044374055586344226
GPHA2,,,-0.01331828969388842,,,,,,,,,,,,,,,,,,,,,,
ANG,0.030658776116448523,-0.05147581447657799,-0.015352788728384388,0.017331429629288995,-0.053445828387187776,-0.04410792830411649,-0.027321557377089436,0.028531350016812746,0.17476711448611792,-0.02568433740949074,0.03450933019886435,0.05297364350619257,-0.04835227020064621,-0.010893336337348292,0.05664525978490439,0.04815265762330569,0.18544659187069457,-0.01594636747810662,-0.03473715725066306,0.01900027975952145,-0.01766560730867714,0.11425167607846215,0.08543566777779003,-0.04494782206624595,
FBLN2,-0.04409828757936736,0.03174199710555751,-0.03837219565955235,-0.03764550157972284,0.016948909269938233,0.03611380542790581,0.11571168284856777,0.030591047336370806,0.09632732538543762,-0.0717684428835087,-0.032499025802791064,-0.023869716458928675,0.042528978970627386,-0.026656908818247095,-0.01679534047195334,,-0.07898677748591691,0.05504969565625465,0.0889028258187255,0.05156807801013132,0.04723851605169623,0.10448833866670587,0.011926609295343513,0.07133172054611911,-0.031489715458462644
VTN,,0.045516132316793745,0.008411122153197113,,0.06075422438170221,-0.0029649234930621015,-0.00015274823044588345,-0.00767840610719703,0.07565935760074086,0.06419334127637574,-0.010649261137206436,,-0.03025965819328476,-0.06478671908110743,0.11074271014427303,0.06187836211781516,,0.0352509771965942,0.026163194343995437,,0.0016023712339316065,,0.020575027318721986,0.09486728351739293,
VEGFA,0.0657573100422658,-0.1021503113788466,-0.03752645741715195,-0.05069387099924505,-0.12059694828904963,-0.03308304709789689,-0.0885075023179103,0.10526009742001108,0.1985507834348443,-0.01062039150720884,0.00957480572095187,-0.010121210036119033,-0.09975035794560365,0.10389569160896962,-0.06723012276007673,-0.05286865092752727,0.2350763797719174,-0.16370400585198497,-0.20880251525971041,-0.039340697545796756,0.055184451035199866,-0.03450581951750752,-0.04942520998036684,0.05482700538857693,0.008245141655038158
F10,,,,-0.02362895838163693,,,0.051065107828900155,0.015566236950615797,0.08060698163032193,0.002009380858348702,-0.008968208897054387,-0.055671768209613955,,0.030761892093531026,,-0.026488461855812155,,,-0.026512703621780744,-0.006003089362953472,0.038733173239666206,0.006818985403793942,0.10127173903466807,-0.017955796376734275,
SERPINA1,0.0041629016354172476,0.034942730288961166,0.035871129824921036,-0.053112732948097305,0.0033334524395194774,-0.030006669771907676,-0.026938194088028958,-0.0362429674605403,0.2559469430600771,0.018102792370210233,0.025266177139285285,-0.12022452545165721,-0.04253530182879887,0.09232571617511377,0.053619393326487096,-0.009671938755784735,0.04565332905974388,-0.009436769805332177,-0.08618517100340604,0.08923882198862847,-0.04807515429275125,0.039629318736199716,-0.012638623176339273,-0.011131630764548666,-0.025267921808764027
VWF,-0.013308850200699747,0.043019600927717866,0.01663055159446316,-0.04088934280500283,0.06796497054724515,-0.01071350055071484,0.06558360529443279,-0.004094012424108105,0.2294427244438523,0.01278815126372354,0.021416061220541908,0.022210204736623804,0.05629822495858564,-0.05418172715136577,0.04162589630673811,-0.00707039822026234,-0.005724755082841393,0.08702555068375283,-0.0045662493588457895,0.09398614905061192,-0.1201714165919028,0.08101086508481431,-0.09962772131709306,-0.07809758302956532,0.08522170260811258
GDNF,,,0.00780248678943914,,-0.012599113939370174,-0.05533239216672721,,-0.0008399679657207169,,,,,-0.025802004551405314,,,-0.07603226499094491,0.06171894738325417,0.046077382710479405,-0.0008483720556024654,,0.008044643933776982,,,,-0.07529041462884666
VASP,-0.015533064682067606,-0.006044470732427684,0.0321404206091028,0.01865932631635132,0.10806441703126576,-0.013615660199424614,-0.06509327770184624,0.0272207407703021,0.17217418143253313,0.02313008460797066,-0.0022616956289170805,-0.10951929568464765,-0.05437728881149632,0.08649533840331294,0.11165706832914857,0.004423379547588601,0.02243336663150724,0.04785592175664625,0.018707044774247183,0.02605696858714665,0.008871211855678384,-0.06760303151943968,-0.023466584607255526,-0.0029919777334208994,0.08891959121498845
ADAM15,0.0313074820991928,0.09022754371536566,-0.025443515378839033,-0.025330459328986126,0.053721026989308515,0.03860111570891284,-0.05645904647567351,0.044948486711896746,0.10286688590282647,0.006656568910175867,0.008609883177547949,-0.03767330185017701,-0.0037036365607383665,0.011979962094382813,0.04235486507354289,-0.005358465826756394,0.0315094299889596,0.017891688552859997,0.05170299840195982,0.06938550073488653,0.0019338302954623454,-0.020848186605322797,0.05639137091074615,0.16368316547811296,-0.09253907504287179
WNT2,,-0.00894121214582427,0.000498163886368788,,0.06585521390396475,,0.08134972233630479,-0.011263761220743539,-0.07940398117173289,,0.016906294122469034,0.0030455651526002008,0.0593293588689972,,-0.05421493351340671,,,0.0668589120323578,0.07259124150519786,,0.08457150151413634,,0.05195796354494532,0.11626535805576448,
CALCB,,0.10812256049475505,,-0.029949063371805446,0.046574187667297,,-0.0043326585839380295,-0.0029114290230605002,-0.05414825127798729,,,0.03269797411656267,,,,,,0.05002209815621005,0.009326182779105118,,-0.025092496471854214,,,0.0036007542782293196,
OLFM2,0.12211294785959365,0.05434071129254512,0.06657108997627828,0.007523458251861563,0.11269840477971653,0.014351280488066283,0.09130639780127893,0.026224684618617558,-0.08355374913031928,0.054166681641727166,-0.0022042690438847374,0.08589970011799065,0.03155314824588417,-0.03003750566488859,-0.006424461232034911,0.08538214388668348,0.10622614853892298,0.08149347087518007,0.11998800828054014,0.025647522022866177,0.0986918070644932,0.02175772431299615,0.2207450644620169,0.13909529979930996,0.005457359798369634
MFAP2,0.06009162008751943,-0.020024952602756555,0.03213656099810347,0.05453103317800145,,-0.018638601154158572,-0.008746713250333061,0.020217989882004562,0.15868102965440592,-0.035107985791554684,0.031436509739396046,-0.04466795440547708,-0.004548370108128715,0.05347091822476433,-0.011575005176432453,0.00010816698917635725,0.025661597238359573,-0.00756885040087286,0.018571690379597904,0.08161907660104123,0.006508452062604489,,0.018786270186231684,0.032885177796032276,
HLA-C,-0.035923254918367266,0.09292813412940938,0.03150790041721456,-0.013934971758904126,0.12397994024287237,-0.016421087383884186,-0.016814522392579304,-0.05982568588621152,0.31810012641548463,-0.010965894770414012,0.008656135071683689,-0.25515365408329477,-0.13294810164797938,0.09038854638821625,0.09144878547526636,-0.0691683870432409,-0.0689373490586458,0.02289976726016629,-0.15004229905432023,0.02327594396240052,-0.0015585936317862904,0.14368298570393662,0.06737859592524204,-0.032639947391023015,-0.06174336926883624
THBS1,-0.00913969160383536,-0.04081556738042065,-0.0008160573086122508,0.005725471964414657,-0.0011631282206665899,-0.0555219933554439,-0.04026766402096401,0.009289643650994385,0.10531813093486145,0.04835730130941761,0.009376765599270248,-0.04270645063183011,0.00015216294342912094,0.054185078770583615,0.10023105096689439,0.06674370187869766,0.05807229401686309,0.037531409417096796,0.005222512457621645,0.06521177711501669,-0.13308246027646,-0.036698504097334515,-0.21549355451453067,0.049451297727396024,0.05806258391606768
HSPA4,-0.06943576244962922,0.05237512764913463,-0.01592419238511917,0.0006176821646130169,0.03328482534150305,-0.003616412498599533,-0.10158760411190326,0.01821976768363838,0.04386797558066163,-0.0027295982862697707,-0.028379299522951942,0.1426664405748868,-0.020980427219244993,0.022100679481764734,-0.02752704515618829,0.009762962550737657,0.08014748143128127,0.03605398370458814,-0.030675275967613,-0.0883320728169907,0.05394019513877902,-0.0497567490760471,0.01732507263293068,0.04076299403074559,0.013233512662581198
LMAN1,-0.01812636768623382,-0.060100712003006596,0.030232696919743868,-0.009300213937069226,-0.08079793014979493,-0.05075302585977029,-0.05649654928111406,0.025981445568977943,0.2619146372965888,0.021538753543175342,-0.009797627257025533,-0.03668226612239244,-0.04614283691850298,0.08076609453294249,0.0795910503706254,0.040430500648388,0.01979287159371952,-0.08782267480313062,-0.12845609182030207,0.00892455356299978,0.02809756274607068,0.034724056392335674,-0.07528239884858327,0.007658608664116299,0.17743261327036952
LYPD3,,,0.017912981225014994,-0.019082075462245596,-0.02622092356955492,0.03258191827231504,0.009211817883575116,0.006116685985692722,0.10196801825224334,-0.031767584501105624,-0.04736226999572094,0.003647858095314629,,0.04430103000367516,0.018871948423462705,0.1067156071696876,0.08022862003813368,0.02312862336725105,0.07321624969456259,,-0.01649429386987587,,-0.0017664685352247447,0.1021773828432904,
APOE,-0.16505685784614713,-0.021060874408479736,-0.005743762765146086,-0.008061465865131836,0.10342999388591648,0.04849967483776366,-0.0725315282045044,-0.05873844482589101,0.15107887672335382,-0.01184951721193488,-0.04105214959154098,-0.2723886302782704,0.059063263075468414,0.018652145066019615,0.03912339614979849,0.09537733386049167,0.1398058650477281,0.05113677450076012,0.05550439355620924,0.10713446780503103,-0.30794842406038714,0.16739063868194282,0.028004282896338314,-0.024703656229975526,-0.057328755833436496
SOSTDC1,0.09510444838801119,-0.020641948654495278,0.0002150878131078256,,,,0.16098806457487724,0.018966032770067642,0.018769299740998748,0.015186189840167782,0.028612420314710944,0.17003091276193555,0.05431142164150259,,,,,0.06600841549660423,0.05180175078666444,,0.0804365837003991,,0.061099422699450526,0.008376462548881842,-0.034694359655993094
ANXA1,0.03580317723740055,0.03949745938479737,0.03801354429815711,0.021866024495794924,0.025582198382055693,-0.09864186589029789,-0.03288167611851201,-0.00034620755280758103,0.2537785439623514,0.030684950230369833,-0.022968807364988634,-0.18487332024605943,-0.14187639870801083,0.11654652909452126,0.03886803118984011,0.056181425917153895,0.10355898280814511,-0.05188005294952283,-0.047953868449401874,0.08425949791185577,-0.1317540527987594,0.04532606523365573,-0.0592161509792551,0.08914004264955855,0.0902609856117172
WNT2B,-0.01753815461955442,0.027241907441635873,-0.09187302667637333,-0.026877815023941754,-0.0023040616461793353,-0.007647835358146663,-0.012457605205132142,0.057755711346762294,0.14485813471756143,0.015348235918426448,0.00016125213013971958,0.10245138932954881,0.005853411794038439,0.008041458799658839,0.04840626177516257,-0.0019274467057340127,0.07977319985035435,0.09053631529935477,0.04849799900056507,0.044844224786599565,-0.013843182435484661,0.030472088786736694,0.09929206583031451,-0.018136819976624776,0.11695221207438415
AMH,,0.006844747026665676,0.012562484856059573,0.012699494540249677,0.03674497271739742,-0.01889252561908717,0.055053213359237005,-0.038257842664183944,0.04311423186974118,0.010291832593916611,-0.02977551495894207,,-0.048288385859382534,,,-0.010130080451195607,0.0625354614472716,0.10987258186741848,0.03804638685452221,0.04251529173488708,0.056112959498629766,,0.02751644304892865,0.03531180839497691,
GDF10,,-0.04869634470252788,0.001910343613488723,-0.021467647022270088,,,0.07998307851606998,-0.06888998878182666,-0.021569001773183764,-0.00308799748105277,0.04155852672520912,0.06486618925023392,0.08587456034066074,0.03793935114770634,0.05245978561377591,0.0063026293156900354,,0.08239044874472552,0.026063875840983217,-0.061004212488196936,0.08313445862582529,0.03606799016129451,-0.04920862124966883,0.03306849667462326,0.09520930306075989
EFNB3,-0.05758753537082113,0.027788750804720357,0.005670827785389523,0.04810158616549912,0.11401906189963229,0.05374345116240024,0.07758865268098462,0.03729123154442908,-0.017943235993080862,0.01020687687700306,0.04929570960687603,0.20922849266769875,0.0828394034843989,0.08480178395191576,0.023936661644332405,0.08421628883203669,0.04158142296912566,0.10713701461205045,0.10865097267173711,0.12321454200671421,0.1335604577031635,-0.060522323011968894,0.12400920128506444,-0.006003479345639293,0.1006512286432174
LTB,0.021979321024560117,-0.009903810929848936,-0.003302382862445537,-0.031318831206856045,,-0.013662154745600934,0.012023401607001761,-0.0008901011271665524,0.05139333684589824,-0.01826365419547999,-0.027917624341300806,0.0071108654318169755,-0.04651368275386828,0.08123909887010866,0.004014853489936401,-0.009222561964549444,0.0019813817427822063,0.041396849706190904,0.03213332011864077,0.05234530338091597,-0.03621890727465863,,-0.023300312208654587,0.056762271653688176,0.04882448196033356
ANGPT2,0.006414453378117116,-0.008421248340752007,-0.04945889891201687,0.008886072311820249,0.056141086109809835,-0.04851832174910438,-0.004963273504168968,0.0789711068033952,0.2812469440963378,0.035272719868662816,-0.011250346864850646,-0.053138206405790436,-0.038790757353385844,0.03284573250228754,0.05822386670439216,0.013434428670580568,0.1333258470564926,0.08159859898402841,0.018601378969244662,0.08525741842479828,-0.08055806931057931,-0.027116405075165433,0.006476701449421544,0.020949948669645228,-0.028564254261722745
NRTN,,,,,,,,,,,,,,,,,-0.017458201335392564,,,-0.0005444257758949214,-0.05611584506738789,,,,0.05298226138259764
ADAM17,0.016911855016352867,-0.04142610058057578,0.04180659718963355,0.046310766279678325,-0.011773909999169057,-0.00912434157126086,-0.07834942552451794,0.02589920277728524,0.18387702495634164,0.01784442414894249,0.02012520709074984,-0.04878444111966001,-0.027437988884146544,0.05998996126413774,0.030993053031317264,0.012728005710618231,0.20680972263086592,-0.10795329101316664,-0.05977757466610666,0.09962644580969054,0.07706745390057623,0.10827047955406108,0.03172221868412177,0.07584018490585091,-0.07215993839452882
LRPAP1,-0.00032915654738156097,0.007353865162014545,0.06929836825378487,-0.006454454919951976,0.06393487227997095,0.029762354779336028,-0.06707185664775452,0.00863703430756683,0.11563682370027566,-0.0359062145572463,0.037952199991473874,0.1054691122250956,0.04017196257226085,0.10563593252746802,0.014121458076815875,0.04784423329795999,0.1074678129141717,0.04944385029455575,0.08513129983595112,0.09725643586413062,-0.06034627970022487,0.08813133887534617,0.02813588525644745,0.11877498195128873,0.09751426071688625
NID1,0.02730896666554836,-0.008366496956902834,-0.0061845243960751565,0.04768677888383441,-0.018098331199504082,0.021396471958501726,-0.011138159271594124,0.051213289271047145,0.31677926503652604,0.016801928286720943,0.022613353510893178,-0.0672572695743125,-0.04278012568315168,0.09798553086656243,0.06857162598065523,0.07597436863108703,0.0739173805518025,-0.018332207956516685,-0.08422095959643634,0.07904578860179373,-0.11885282714504519,0.05922245073832334,-0.08091930866629458,0.052186481794796326,-0.01585148095105457
MST1,0.017654395150588854,0.026297289368345158,0.029301684913153277,0.07134938725874813,0.05521236922860741,0.003570838146276354,-0.025466194877032732,0.03802547015557482,0.24985758018977752,0.04774294715798878,0.020839120322677585,-0.039574962723196744,-0.022273154424401864,0.0033702808004598527,0.02848823230711178,-0.04859147343810579,0.06109757291755542,0.08890888699159955,0.14032679378898563,0.03034822365858393,0.02997396571194603,0.14135710664150133,0.14533747857817989,0.139906800151107,0.021636751471455322
IL13,,,,,,,,,0.0054647300097880516,,,,-0.0427092696176644,,0.024479626971203598,,,,,,,,,,
DCN,-0.08523900681922446,0.045924427991967984,0.009550576934901132,-0.03840318240776173,0.10120918281043378,-0.015099969644580317,0.054632652643424984,-0.11114174574735289,0.23952980752289565,-0.038129667538710096,-0.014236805170716437,-0.038685970832929684,-0.01962311974660081,-0.022367253309566616,0.06351306855379522,0.06885318961472181,0.03850662005642384,0.0703892250899219,0.007306203833718492,0.12817797349448273,0.004326074545140845,-0.029059274858306155,-0.1552443667633772,0.007643647424755636,0.07190907203593483
IGFL2,,,,,,,,,,0.04936411975463856,,,,,,,,,-0.005227643949521312,,,,-0.06210838893497276,,-0.065578674840766
COL7A1,0.03798961425672628,-0.02513001285684801,0.00559150808218019,-0.027788360672142427,0.07782012090922613,0.02554786303878382,-0.07426644268475627,-0.049170252276125356,0.1971302781183988,0.027709032016682796,0.008816452101032338,-0.0072334324157978915,0.0051588704613238345,0.07591751698353927,-0.010444522796755378,-0.02749163595693175,0.07243308127868221,0.004127893925173149,0.0033989252455891806,0.034903317203667336,-0.020317478941865353,0.01319170372729994,0.007598074939226647,0.14078985030578342,-0.011378059054873999
CALR,-0.02002563818028661,0.10700540278040745,-0.034838922401465605,0.020921549946773824,-0.041497167837282835,0.0012977173227885445,-0.14616103107119652,-0.003875910665066555,0.2384531759421714,0.015221158354977895,-0.01708439441215658,-0.1003740331532796,-0.1305185964237778,0.0828117651891966,-0.033320051453821456,-0.028435660527035587,0.003108775727284483,-0.0721082939608425,-0.1377353974606607,0.12521318596523875,-0.02177924429563156,0.05341766037457786,-0.06269146485124107,0.04116643892511859,0.09159373707771945
PIGA,-0.004538259598312501,0.09794872853245211,-0.0010132839678990196,0.04252690348611641,-0.00038006283768067,0.042146691389631646,0.03979459641224537,-0.023784295745210734,0.09963573343278154,-0.013332003680372798,0.028869239980972638,0.041078237077938735,0.011700139731549363,0.11971561128318448,0.05907535395405945,-0.02359856732533501,0.10235811458572401,-0.013010969908464102,0.05843090833890151,-0.07622613809351492,-0.013213939821736272,0.0860122552072854,0.08198107628725022,0.022982002164540164,-0.07493220415704634
CD200,0.02656331469656014,-0.032627289791560675,-0.0005791042960142146,-0.020143786075684584,0.09584325302552636,0.08573036608312433,0.15508135651577276,0.07799253598686087,-0.12536288509564003,-0.01291822618982756,-0.011002218036708535,0.1731571342041976,0.1067060254976102,0.00508313852490553,0.01111482687011727,0.0024113248793837336,0.02977909908449482,0.12317898681192863,0.21669837168927122,0.12228552418800802,0.12229283787703288,-0.008928689845833407,0.102359599435488,0.0399265137194377,0.05056241126128114
GRP,,,0.04179892672975318,-0.018222040640453983,,,,0.012451487170135682,,0.03882503337332509,0.025341385522193092,-0.04249549105704901,0.0034119955245431703,0.04290731402795622,,,,,0.02166598301337055,-0.025597224731795327,0.02642035688653341,,0.004701043736407377,0.00978697172539957,
CDH1,0.056179099419987645,,0.028585453804863326,0.003921078528543002,,-0.013944091529426736,,0.045624137035108536,0.18002986179171862,0.005888820920590882,,-0.007660299768426277,0.029000013484447387,0.0033497787569069203,-0.004622078618079127,0.1306655731369914,0.15446333507262353,0.09613946048527516,0.04610197271922764,0.1428711814361227,0.007675820972004699,0.14253780523670329,0.14687936688302233,0.08505212440287933,-0.08052095301649244
