,MGH258,UKF243,UKF248,UKF251,UKF255,UKF259,UKF260,UKF266,UKF269,UKF275,UKF296,UKF304,UKF313,UKF334,ZH1007inf,ZH1007nec,ZH1019T1,ZH1019inf,ZH8811Abulk,ZH8811Bbulk,ZH8812bulk,ZH881T1,ZH881inf,ZH916T1,ZH916bulk,ZH916inf
IGFL3,,,,,,,,,0.06963091355234505,,,,,,,,,,,,-0.0007266197119851183,,,0.05003555012274314,,
BMP1,0.027437980015951387,0.09793002442552312,0.04329059069431869,0.01672166946092046,0.08586089851387702,0.07388343922093488,-0.026663879982777396,0.006255281618049369,0.28437347814020403,0.02965333108176318,0.029387516203667384,-0.08266301632037323,0.10226746636467737,0.034859620509466484,-0.007679246183606205,0.16679433347649109,0.07179730350114694,-0.014289198589355252,-0.06734402487980187,-0.06388057243482044,0.018197155184661803,-0.0971818331276722,0.08901769311274663,0.049943685642777375,-0.009395452667228698,0.015550450284831019
NDP,-0.019420607157204346,0.26048658999864605,0.10382167482051849,0.08417871087939736,0.11257466457325295,0.08675836731342493,0.1393589973167852,0.04708850111265239,0.12134759325297659,0.06113493353854424,-0.019868012030609394,0.07906325015642195,0.041498209681505215,0.03702792183647054,-0.016938463107067547,0.1520953274919732,0.007628350933743169,0.04782417063234727,0.028375607175368314,0.0828086849358341,-0.0036053196614539503,0.1606591566058947,0.025582832539989792,0.15583334473795948,0.09800187044041794,0.10231069301466617
TNFSF18,0.039047902886793225,0.03922566470149044,0.03890896070747889,-0.01235227733898794,,,,0.01586204557642246,0.06806172246848287,0.04597418204530027,,,,,0.020970498454153424,,-0.05413128168728073,,,,-0.0374008841437302,,-0.02026355899290685,0.07321002810241256,-0.014790677275435685,
IL36G,,,,,,,,,,,,,,0.027525293644030516,,,,,,,,,,,,
RTN4,-0.07321858281237327,-0.181848746273973,0.006064518365186643,-0.061461860693293874,0.0752630361510316,0.050324984131802655,0.10062961423389022,-0.12149875601939261,-0.37998959278575956,0.04484336914603539,-0.10037793273338948,0.11294916769837157,-0.05002665984180686,0.08985656151757408,-0.09764039253732507,-0.0956555932999897,0.04932367081621513,-0.07338743889108734,-0.01643719732682127,-0.05042509175161923,0.042007397785553686,-0.07507822842916961,-0.0731961410601532,-0.06988175115979711,0.16933847492539209,0.07575457688362525
HEBP1,-0.04738765074774724,0.0019596579729342788,-0.019791883573020405,0.0910911153741341,-0.0029889766301807274,-0.004858380729288071,0.0006079999474275802,-0.016800068748510706,0.1496370232824448,-0.005308088352528227,-0.006567775689087847,-0.0052465398236137585,0.05694593145361393,0.03344472859741581,-0.03326255795167398,-0.019038406954895636,0.04713440719133681,0.048564893008516685,0.046526810547731334,0.0005691572425652963,-0.0005830031384501529,0.01603367417398458,0.058346434577766476,0.17964294490445223,-0.026785157509798995,0.10439561693300321
WNT7B,-0.03686986371875593,0.018926586432212858,-0.0031187437680269305,0.025558200009859155,0.054240241000791944,-0.022164172341711016,0.1526539431245853,-0.06459212839469534,-0.24331307639042837,-0.06526797595300862,-0.0240782969406881,,0.030455188462444004,-0.025790129014393794,0.055336165852448195,-0.1745049766581216,,0.054044775987602586,-0.05457433415328238,4.5848214269357566e-05,0.000820322913264504,-0.03362094261488998,0.02600542672744937,-0.007300764143976157,0.11227710722567849,0.11878099271980508
PTMA,-0.04430020300349082,-0.22774909261034373,0.2328128555996814,0.02482699926694051,0.19837659257229248,-0.04063038850743114,-0.1554264618172736,0.12740143805505774,0.028596564371548627,-0.0669590685697897,0.0738071076085564,-0.06768006129371758,0.0659303760426956,-0.03291209692770203,-0.007402272346069004,-0.11778033470847324,-0.14524931501895585,-0.059848699220165454,-0.04114092146305566,0.008063473977564246,0.03453763262277914,-0.1322163218359837,0.02361807490353731,-0.0283735316640846,-0.16362899409164752,0.11013094654055534
FASLG,0.05849370676508047,,,,,,,,,,,,,,,,,,,,,,,-0.05384989728216504,,
CEACAM1,0.038558315798561324,,-0.012804428913125469,-0.0005242086338520757,,0.009645744754002483,0.02966316076019464,,0.0748928716993149,0.044796858879843825,,,,,,0.025960118223469927,0.008348209435601217,0.020674829803358618,0.05423107937636617,0.013875019818233697,-0.025429429875335533,-0.017196564090466392,,0.033694680389531405,,
PDAP1,0.07756925620427231,0.012114414213085607,0.1049565686729302,0.005267212322812022,0.10614880060332252,-0.03602149806269617,-0.1042105724852121,0.007117351650851533,0.18283581538595137,0.08444437845990023,0.05061537778182105,-0.0471534988243758,0.02658816306858644,0.03900962160962227,0.09443555827293633,0.014944883674025277,0.0720581195153561,0.01297073364918007,-0.09814833094838911,-0.0014416346984956342,0.047675049794098055,-0.03411754326970188,0.0696919607731589,0.013001502361797694,-0.15946434269936866,0.009768019880284678
QDPR,-0.01963927898528645,0.14247387335054673,0.21515751512108397,-0.04189045532004218,0.08830088804476284,0.021070056004349788,0.2515647378515205,0.010160110762789243,-0.12473285283343045,0.07953473378151657,0.007862498116436495,0.24585556348679807,0.02436149336775484,0.06837181912419385,-0.032233130298939976,0.09179229446074326,0.03942775813162763,-0.02825476880255692,0.12521695158810806,0.08179501331283279,0.031120491673000766,0.0840103372400507,0.025244397160250884,0.09140322455418835,0.16419381226894805,0.06902442425435161
POMC,-0.035673220069638516,0.05191200685165258,-0.018215388741357245,0.020038888449572693,,-0.0035371821360485126,0.11361992346588365,-0.013881255897149988,-0.018017488288337664,-0.0323319513501736,0.03399006343344426,0.013755344116224866,-0.04787251067209301,0.01000268727966665,-0.07562422796459858,-0.09170389499590714,0.021833908321945244,-0.021767158943814813,0.05230509145085939,0.0010520047180110458,-0.02225880752743035,-0.0055220561089135345,,0.0440072664579271,0.040278731792030655,-0.07026131565334567
CCL18,,-0.10314241505689171,-0.08314446431122689,,,,,,,,,-0.01966438761727165,0.047432357669713085,,,0.031450880209262386,,-0.013080493573171837,-0.019087535726634308,-0.046073070765658614,,-0.011531580765984173,,,,
CCL17,,,,,,-0.021770063472970946,,,,0.045936258855506014,-0.001252978220796533,,,0.01507145051269895,,,,,-0.05713844063061103,-0.0470367603043274,0.01980291909712684,,,-0.02310202199998552,,
VEGFD,,0.00104052193181613,0.03274649943984904,-0.02550322234217452,,-0.040014208262163585,0.024645668147826465,,0.08607383676643092,-0.01883944709201155,-0.015796170100392214,-0.003956941203190096,-0.04385147420498793,-0.016858769544218794,,-0.09630094765031315,0.016476058609584152,,,-0.010596807124919259,0.0403397642554279,,,,,
TNFSF13,,,0.013241703430445487,,,-0.0036943572099470655,,0.007810042597247614,,,,,,,,,,,0.045322055260120266,0.034859452314857604,0.0055937963219705724,-0.09596053690778826,,-0.008324326602199214,0.019328131957947116,
WNT5A,0.009046598190238623,0.011410705987690976,-0.015611358103016074,0.09105757644415088,0.16381261003387126,0.03839139683750095,0.20297075892779037,0.11291655473698346,0.296685480018265,0.09403756199751509,0.059154279059514606,-0.0061017018044416185,0.042515436054268316,0.03384500556981932,0.03657305490981618,0.02671297637841085,0.03868018703146305,0.02806031175887675,-0.05010296803732137,-0.07319429377451418,-0.0232058009573936,-0.05988301536517447,-0.013985102899151097,-0.07270933467792787,-0.15759071170790634,-0.048445808864946434
CXCL8,,-0.3546668943365815,-0.2081083446046909,-0.014343612194865607,-0.20128430277718112,-0.23621010900493788,-0.3609825362754655,0.015956023748828936,0.09284341671962563,-0.13042851446057652,0.016073397516160486,-0.07848147754121454,-0.00628905465590296,-0.16487339906498397,,-0.36926174294997416,-0.0375071389137069,-0.16555989791171183,-0.1757369790340237,-0.19350209313527464,0.027208135200599618,-0.024589230300169296,-0.036764042999248576,-0.13827365724823593,-0.2456612242684356,-0.06984920926930853
GRN,-0.09717787414244063,0.01061454952456138,-0.04266092374819121,-0.05944846193966864,0.13618402338113864,0.04547166220427553,-0.09284907443710755,0.05447058145163234,0.29871472851610203,0.059407953434958485,0.04830554349364612,-0.09157425043557131,0.020742799908741484,0.053424279474434386,-0.030475394810649446,0.04018944413432568,0.022704200466201568,-0.03590339153413134,-0.0814294908053083,0.007837035843533251,-0.05199200748934037,0.013202313375664557,0.11608965035808787,-0.17322091452051305,0.05845737910961147,0.14215692638527713
MIA,0.0731321037782192,0.024913284196247956,0.01577103695538534,-0.010387312015308063,-0.05804731217073054,-0.012902580770951386,-0.1711712937235241,-0.003841337237364598,0.12031003850561575,0.0036795598304805344,-0.011010075867538374,,0.006980203750768119,-0.047259068734099234,-0.04504086667728934,-0.04414830376416779,0.03736895631793343,-0.09763323121924773,0.24673889373364233,0.11241415761540827,-0.06564216313327813,-0.18910447807357333,,0.20872650029612222,-0.017687999650984082,
COL4A4,-0.004055134311045417,0.06239677055559248,0.05917214053205775,0.051857615804791306,-0.0076801930829788765,0.042859412018611216,0.09527366569978964,-0.06555374445786527,0.061868591525448643,0.054083925213706585,0.016761316987707286,,,-0.00764212603021091,,,0.00192087899069994,0.011673268259268432,0.04260255067634061,-0.011156297814064802,-0.019852842302866894,0.026010827821352493,,-0.04112677214087022,-0.016925777116590254,
TAC1,-0.031213667048488027,0.02035742301299069,0.02153679325114352,-0.01686082360036105,0.18501359152879623,0.030595298915710313,0.23698525551790747,-0.0354435911465197,-0.35349607597172983,0.07998143458100711,-0.05767369475882986,-0.039118472470264704,,-0.010944335640330045,,,,,,,,0.12179599833581244,0.030760272326262595,-0.03532585984072834,0.17316429974010847,-0.036403722683404256
RARRES2,0.0685271801716454,0.107855126381918,0.03129616788296376,0.01683064248405411,-0.0536775681145075,-0.01281904553564309,-0.38001633184337347,0.048648246950537176,0.33637446906494645,0.013826723039047355,-0.05390737551148471,-0.051268755411106766,-0.11760127887518138,0.025911530512865467,-0.02385655033023311,0.09178531724150327,-0.08023059718532174,0.13076969291165322,-0.10084818761452562,-0.20564820603616016,-0.06809054012767468,-0.01494166490338843,0.08140710172260264,-0.02293803025099059,-0.27382327182871313,0.08882498597879447
FGF7,0.08230428753751595,0.017772189299484004,,-0.010460457459775497,-0.011906561249580961,-0.03949192501623612,0.033868768423789955,-0.018368645203433873,0.1148683490521849,-0.014935402329487623,-0.05539603930177942,-0.03343408527520946,-0.003244670022829078,-0.029114997388377466,0.00020335713853056767,0.0008123714089916104,0.13417642681784214,0.024861922513469106,0.06660528924391358,0.052421584576679024,0.0055930544819425875,-0.0757263039699754,0.10926984408564949,0.05723872697905564,0.02807760154943213,0.045727426437597085
EFNA2,,,,,,,,,,,,,,,,,,,,0.07356212493836047,,,,,,
HBEGF,0.00025760129476879725,-0.012360436856181857,-0.061973886504253325,-0.05424903061509473,0.007537069474488201,-0.1386192535585681,-0.20971111433216036,0.037111562222763274,0.15042779773126894,-0.0866816705640693,-0.0009045385383443648,-0.04970366364555644,0.050702304327842444,0.010957044377537733,0.020470255398693765,0.05701312514974491,0.05435024749169606,-0.08354818075148641,-0.024036259738487414,0.025679274308909268,0.0035159817859650097,-0.04469911254027621,-0.11792959224357351,-0.19798826175989148,-0.19284732674222851,-0.00301883080378261
CSF3,,-0.14675370065158155,,,-0.06850600277206784,-0.14252639410879597,-0.2675448643837356,,-0.026318300598379158,,,,-0.07215981600980399,,,,,,-0.12923415212726844,-0.17942378853573276,,-0.01777829103679152,0.025071307843980487,-0.043571893075200076,-0.08947796630450851,
PI3,,-0.17010379221370123,-0.0939534214660463,,-0.08627594486344939,-0.19219413612822175,-0.21673638231494788,,-0.01981808771195669,,,,,,,-0.029326915018501057,,,-0.197355065820577,-0.2433593757468298,0.04573822507741641,-0.14438052352172107,,-0.1350449873337904,-0.22663586638480548,
PCSK1N,0.033634674032707555,0.3325609697466913,0.14476956661060508,0.05327073727296754,0.22305350927044318,0.2083341054353964,0.1505125478417077,-0.03701424412018218,-0.09820820210063555,0.03702988948549742,-0.04457919083963294,0.04745372898238886,0.032254504047988686,0.07927982389691646,0.05237376021105711,-0.004004443299023789,0.10304151770935116,0.0647688724822403,0.053394723710033086,0.12746058667395518,0.001785127517556325,-0.146765127024516,-0.18963418172752364,0.045708109272766244,0.3001741610334511,-0.03997751668871962
NTS,,,,,,,-0.09172452370130955,0.011939680999827748,0.09886733303845129,-0.0654390536586027,0.03426158587653192,-0.08734739132796847,,,,,,,-0.03218313760222351,0.08222487305422171,,-0.0007638566685716641,,0.14683916945942377,,
SFRP1,-0.0035224778761813666,0.06344581506183058,0.004868350196806081,0.04170775510971669,,0.002925516952271261,0.02837552694074249,0.009289499881020805,0.1437096733653996,-0.01202295144067266,-0.01214247549114428,-0.0832619481333025,0.07542260603372897,-0.024374788639324962,-0.02686949801932582,0.07501501679682271,-0.023016822385642167,0.03346371411507107,-0.0015812435564085238,0.0481016348907733,-0.057150669122396344,0.08316783792156861,0.07673027184868475,0.004660662309534466,0.04337684915768713,-0.10810397886988793
CXCL13,,,,0.06523387638048353,-0.026238552466683187,,0.04729467793525082,,,,,,0.003756830249171863,,,,,,0.03954726396805112,-0.09823827739819949,,-0.03837111827342642,,,-0.051406980687332765,
MICA,0.03846815762525761,-0.10729015177895701,-0.06589532112272489,-0.013356322488100847,0.019620835271263876,-0.10771480884694627,-0.08284233158021938,0.019105409192729746,0.11942231574786828,-0.010555872144743437,0.022217920033054873,0.022038215769439515,0.01562445367103105,0.028791140483983405,-0.006455353356884895,0.1469427581995337,0.10590318190189896,0.03254053741399818,0.0013116917965046706,0.0043221986217528655,0.0661448543609411,-0.03586000274811432,-0.021563873858546915,-0.04005487443952294,0.039576793236590156,-0.08558175108723882
TG,0.04283266450827372,-0.03450794656764338,0.13614358986481878,0.023452206878910774,,-0.007337350343092274,0.08153001162928879,0.020667440613921888,0.01554638935638259,-0.029324443589164303,0.044034191596428844,,0.019430228500133286,0.005068568447881987,0.03545731290750522,0.11588612867123778,0.02190936571829902,-0.05151198974463641,0.05087676343275827,0.031322708110574866,,0.06537996359740343,,0.03244868814039958,-0.018104524464076475,
ADA,-0.017319313132175943,0.016706368589913624,0.051624847454622536,-0.03218290396677902,0.1328451977500999,-0.0012461566921820899,0.016462759865813862,-0.016047898328642698,0.2506177038661439,0.04672523570799547,0.014640808933361171,0.01077942382537566,0.06755922509403946,0.10710753824086991,-0.03639889741465711,0.3027400408691021,-0.014330635658757451,-0.022226892958768115,0.028490010074241363,0.07222427502149881,0.008251457034728025,0.013071899671407977,-0.01673073915081321,0.03367325468645943,0.06109561257249783,-0.11049014805940385
LAMC3,0.07848850664915795,0.10870295923944662,-0.017952973840004563,-0.019943493020481016,0.2066136716457534,0.031476444841495484,0.07919050563821096,0.04051960202966807,0.16132899521514923,0.06246774180901665,-0.024575351583954706,-0.02945193177426192,-0.03751004887944164,0.04037925573335497,-0.036084600440654105,0.19331061655669915,0.022611280708918935,0.07943413350649806,0.058732600330475025,0.06622546522899206,-0.025826620978684312,-0.047568209075367796,0.021634382502597912,0.0616587468036539,0.1040763515467334,0.08787539487483634
CCL7,,,-0.05535796711771498,,,-0.08855726839394133,-0.11428104893826284,,,,,,,,,,,,-0.060486736792934044,,,,,-0.05918259744457082,-0.23100042979196125,
NGF,,0.011141757290145797,-0.06634384986105142,,,-0.0949719094842745,0.011799464666944441,-0.002918659721188129,,,,0.031438716230460205,0.0626099595372383,,,,-0.009682814632669273,-0.03737406536489358,0.016763420272060993,0.056195778802985256,,-0.07518121312363323,,-0.021583090369626797,-0.0605132200840843,
TNFSF15,,0.04990786904227898,,,,-0.016736540806247927,-0.02475960618752123,0.04181452387253317,,,,,0.059874953305588355,,-0.019776159456047285,,-0.049116134221773425,0.03920669345248956,-0.06508059990076012,,,-0.06774144017042308,,-0.019364731736037435,-0.05219443203458224,
HMGB1,0.0038795998393406322,0.18962341036560101,0.3094831865588068,-0.026700326848778513,0.2663800513384783,0.16151102859910002,0.13967658006469624,0.03558269183207832,0.35673070693994,0.10781901141269658,0.03705905388975149,-0.07361940755547265,0.07682388778897323,0.14486435959489555,-0.006419492946430099,0.03368405126612067,0.07286033608053281,0.06209795039284868,-0.09379575893177987,0.03527262550357424,0.0581482186442789,-0.10107167452281456,0.13715558933289412,0.14725090693510282,0.011668148666899882,0.10156203150984447
ITGB3BP,-0.02783743505202347,-0.03843559743263661,-0.014128478134066307,0.028851931906823416,0.09627308212392718,-0.0620932462329478,0.06377498920309937,0.03142265702568504,0.21690681651091734,-0.0026348984012723193,0.009578939073858704,-0.025218222485372647,0.056068618794312755,0.022981646427071293,0.06832470523700496,0.05255602344928304,0.011868221065998955,-0.09898846578098049,0.010986470609170176,-0.028960128840551706,0.029930769280921792,-0.00023131290747427263,0.0018986527095823235,0.06059070102760655,-0.08192240547910072,-0.07166738096311433
AANAT,,0.025783570203316866,-0.06193661539977221,,,0.004977317702653888,0.061816557918845355,,0.021467780839730354,-0.03653484276060316,0.04530705178685102,-0.026619301371025944,,-0.037752262607972174,,0.0384555392211737,,-0.018497024251378523,-0.02943786174595882,0.025004235792380966,0.014164099679675149,,,0.05947479493081469,0.03763978757952854,
RELN,0.04515165386753307,0.15090415887053174,0.10577293606358608,0.050493143150645195,0.05345371767279,0.026743002359414934,0.024323300166856167,-0.0007144570300055175,-0.15772461568127907,0.007266026393343132,-0.09048846191730982,0.13784163753682152,,0.017385662339120166,,,0.007051359637725268,,,,0.012631599144681274,-0.023205381548752735,0.04822579892497097,,0.11223169861854435,-0.04024242329380669
IL15,-0.02042636234179254,-0.05701065157785175,-0.09442006953387708,-0.04863421596578281,,-0.04003340818986303,-0.054441295856102204,0.011312341462670832,0.0505543438762531,0.03429443116766072,-0.021968674315231168,-0.1032725787163931,0.026368582756565395,-0.07975955452049034,0.004498720604986318,0.04926179441450521,0.033183419356227456,-0.008346025057088619,0.014915819208260928,-0.015898282453755384,-0.07614096732890935,0.020406206715816926,0.0686583328213601,0.02998743508349967,-0.14879474110854563,
UTS2,,,,,,,,,0.09860913033671585,,,,,,-0.043752861119384756,0.049466418243039184,,,-0.025475164030381626,,,,,,,
BSG,0.07163540021899596,0.12790985437580946,0.17790654861223493,0.027988405463415213,0.04299567854881688,-0.036021047034713434,0.008750043619357268,-0.029712509291275474,-0.16468900180150423,-0.04973302952622083,0.010722213941556886,0.05926758643313976,-0.09743552049247564,-0.10385731317435842,-0.08334823866195708,-0.11156204183835089,0.07471213696732443,0.12335722158164203,-0.09581937780893221,-0.1768340844438442,-0.05537870118930856,-0.017907252221944035,0.08819260079374054,0.003689609588907992,-0.1326059891500671,-0.08883813385749907
ADAMTS3,0.041417192425779736,0.048132928000160495,0.03793038203393947,-0.03167892767189672,,-0.018687176715848935,0.04268895212389154,0.006084332728689485,0.29312934581724415,0.018550049900316105,0.03876313487092823,-0.024017811993549385,-0.008148999997915077,0.013742273857252412,-0.10654030364144333,0.22543737731898653,,-0.0594735696223166,0.08463707170950262,0.09006589217945216,-0.03857788803438047,0.0049630378056711435,0.12224249182213182,0.17771399069565075,0.040711876419806996,
CD34,0.06111352739629333,0.08607049759352835,0.07391623738078656,-0.058190324655544856,0.1991623586980401,0.04324461484955078,0.11410947703434622,0.058519457022822303,0.15968317460924017,0.03709103623290495,0.00987929293061865,-0.105520717959353,0.005507188979823137,0.0493563196043742,0.050912098513367206,0.22200649505723719,0.07908748018033343,0.14345477481633195,0.056043222292589207,0.002069362375887505,0.016215645288033438,-0.01966569678356419,0.08910773864490568,0.0021792403574233937,-0.034077482427203674,0.065682105053953
CCL23,,,,,,,,,0.055912254454543266,,,,,,0.004150731634351955,,,,,,,,,,,
PLAT,-0.028371143761887204,0.19023174411006716,0.18116313856789562,-0.013383672435233394,0.13944416524901165,0.16413362681550717,-0.029624645294791852,0.11359909267955527,0.30035328386612403,0.029960895266229,0.01013438793721067,-0.0654374916583618,-0.056464139418459534,0.08655366153808812,-0.06053648634136195,0.2636769167008055,0.08417727947143407,0.05648653928561779,0.10434794941074699,0.1451086931707482,0.005640675136344653,-0.2000757441810603,-0.08448947488850093,0.049653153804285616,0.02180635471483286,-0.09685743332065093
NTF3,,,,,,,,,,,0.052244140904040094,,-0.01207703206665532,,,,,,0.020635275202141763,0.12965526542702058,,-0.08108661392226396,,,,
LTA,,,,0.0370239827047642,,0.0029740134367760226,,,,-0.05528254797997127,,,,0.057734049047030014,,,,,,,,,,-0.050574041874604785,,
CKLF,-0.026662282662429142,0.08083417233951783,0.17653149531052295,0.007370703505201914,0.13410975599146216,0.04971632515668956,0.00848369156450888,0.01971897263596489,0.35578029758469953,0.045376962068445256,0.047885230585151636,-0.034766736147545864,0.060471966513198645,-7.694568568393424e-05,-0.06552768519947752,0.10694564301746422,-0.03283788804248031,-0.044449433852173315,0.005409946860652347,0.03145503598794648,-0.07093311774275925,-0.02165625056958598,0.14546431911749147,0.13334656022863695,0.07611557962161562,-0.13064166405638122
APELA,,,,,,,,,,,,,-0.008140053556098628,,,,,,,,,,,,,
CD24,0.018087687092019526,-0.09074159963624923,0.08107300173180983,0.018011181252371552,0.00300505642091537,-0.05358612754301776,0.24572152732803323,0.0005608000306405138,0.0739061156421181,0.04020467081630063,0.10706196514597666,-0.1358780863687212,0.09170837559662035,0.02962261422513394,-0.060795685808396845,0.07996211004289917,0.00514878950873167,-0.03926309569476558,0.054425604426900705,0.12527544470628524,-0.0860327081658172,-0.008440330239791911,-0.017864086647829545,-0.09070393913746508,-0.018790998899172108,0.06657767153997422
HSP90AA1,-0.03993706965347262,0.09694505464738312,-0.1348018596926093,-0.03066940124079672,-0.2044890305498755,0.06022519503742526,0.11123281765622917,-0.13657131906535097,-0.3120577068319973,0.027487336344972496,0.028824180140662622,0.05575838126775072,0.04744032246620516,-0.011832429834213792,0.04279068092989655,-0.3538392821375479,0.012625509118994998,0.006900738402305631,-0.2597543796971029,-0.2104310260589237,0.044206736065811006,-0.016556688259681512,-0.09015380129773289,-0.02943979006376003,0.05730271394598829,-0.05342972308971494
BMP4,0.03537603362099138,-0.028552285490837704,-0.006073226424327279,-0.022283929285597477,0.029671189638976008,-0.055514099566782465,0.006219677931979573,0.06237977016967987,-0.07294726796651449,-0.04801677076329782,0.014586744407435362,0.03233212501095303,0.012875677013265521,0.04179620349135257,-0.06278981543485718,0.16409236471777167,0.0597314781984656,0.0374427902352071,0.02201574865509747,0.057687287823007846,-0.09904958526772031,-0.07306124538325144,,0.01756780676061666,0.012443476419136476,
SCGB3A1,,,0.0582830204863398,,-0.012935287892804728,,-0.022055953936172074,0.009155627745480099,,,-0.012916460393966404,0.05846382908075161,0.03457111509928566,-0.0036150943672746474,-0.06003366143662761,0.15327673728278035,-0.039304556529886424,,0.028734979025009617,0.053179150239305674,,0.008077554955697392,,-0.024783523180930987,0.05824903466967458,
IGFBP4,0.04756295645788711,0.06810636953851064,-0.03534482806388905,-0.02679983342917582,0.1834174670072253,-0.006723274539106054,-0.14495579346125068,0.12622070765493526,0.13078386533010233,0.011271346557668862,0.045532039847382265,-0.10844931996190164,0.03680511977022048,0.023851706247315807,0.1367065150058329,0.14650502792063988,0.08595037077474674,0.05163052921537141,-0.08161987608724804,-0.03990421092099085,-0.05433440815475091,-0.18248398912867242,0.09691844069590443,0.007462505726809648,0.054524903625419965,-0.03723544881786713
RSPO4,,0.09864319964025808,,-0.0037303533818275063,,0.03646160242641494,-0.05588372507377508,,,0.0013536610233364711,-0.019396663029062153,,,0.07193107414942973,,,-0.0015070425394672767,,,,,0.04620558131185217,,-0.0019272445790098252,0.02427109730712036,
LEFTY2,0.042693094409335455,0.067871306901924,-0.012696349575672351,0.054590838639251835,0.18481062335114737,0.017223163754410215,-0.022688933091907944,0.041518599749103775,0.20741483240225292,0.09523079994032017,0.03393237327821894,-0.0016486702612274874,0.015069054901939317,0.0013645193844117234,-0.034966226117225344,0.24426065401428018,,-0.0811020660392019,0.035912348976267806,0.0196686914374209,-0.03136550938437558,0.1253087697907863,0.009779009347637918,0.04502055134401346,0.07063125697895613,
PF4,,,-0.03119079598377388,0.029050003131885504,,0.031096731646176063,,,,,,,,,,,,,,0.003117416620962942,,,,0.0876361354107439,-0.027505411243385076,
ANGPTL2,0.08410754589606088,-0.040522330995658655,0.044015352184974016,-0.0004655887057184119,0.08882196267138133,0.07323416257335481,0.040497006855526416,0.13794552804270754,0.22622656888576737,0.07180819229074654,0.06778412045423879,-0.0031802211975671107,0.06496169165242947,-0.038319148112280176,0.04235400689176106,0.32301718231366455,0.01753225494673603,0.04440252969582522,0.1883056633819173,0.15834818864768016,-0.06246840650995361,0.010936358346619738,0.08930174548838164,-0.07362779241049026,-0.01661036452096255,-0.07919229823500985
LRIG2,0.02659107323720157,0.006568412893289156,0.0755455946596901,0.01907059009601723,0.04591065473425446,-0.004119484910329999,0.12104502601767994,0.02861542304825276,0.15596346166914887,0.04567208650909197,0.047403461198663566,0.03808871191859647,0.08719141294097371,0.02038763678831249,0.05280678588270968,-0.048645763040771804,-0.017654074505327935,0.054539519033335586,0.034355453676327585,0.053729360540664954,0.021285105927177323,-0.0028033888269981275,0.01661867861640651,0.027659254141814447,0.07290213364868876,-0.02425046674796406
ICOSLG,0.014058920673872047,-0.10577789441774142,0.03405231271217648,0.02246173512141816,0.09330723184545808,-0.04788342479339674,-0.011062641734691613,0.03752001423573041,0.1397488751176308,0.01732913095516064,-0.009616167922235732,0.07312722126374883,0.03627277074592594,0.04215316921635142,-0.04985655749716154,-0.012499004033889139,0.051254521866577675,-0.01048382370346482,0.07055623959840407,0.031838477549869564,-0.010854931765553107,-0.043204623230882165,0.03029538664502741,0.011805125781930877,-0.03367320135981454,0.03468877743924572
WIF1,,0.1408150638560625,0.011948030685996494,,-0.03601953477270929,,0.24966664126699467,-0.05357398245505412,-0.32540106473029273,-0.027504664939226126,-0.08023465251795887,-0.038459858981748994,,0.00806759955393696,,,,,,,,0.021581522166215898,-0.03783624215857299,,-0.04028539121635406,-0.22956066995863642
NPPC,0.024404550090560802,0.038018176843914946,0.07521434575766978,,-0.0570687864643666,0.02164333648766591,0.035153316678797474,-0.011419862272375332,-0.048270854882422866,0.06271130162740168,-0.026503134800488378,0.03909351819709107,,-0.11225638179847347,-0.03345445818665226,-0.06017407044433585,-0.08847497602322095,-0.0025480770322027922,-0.09079742474059989,0.012800699944763348,-0.04759191287163312,-0.07011081401144063,0.01363734725238806,,0.1258066786912836,-0.07098144493492009
LYZ,-0.012803419762111561,-0.07248076347693151,-0.07515178469425558,-0.04066838943630326,0.11864886311714054,0.013307815636957189,-0.2372507226063308,0.04145429565803968,0.17599384341366406,-0.0035256948889769773,0.03396782480196662,-0.1364307354573646,-0.022726711058070198,-0.05272094310289503,0.10927947889368551,-0.05949587352943082,0.02402435249326073,-0.09187570432736511,-0.009275584559792924,-0.014083341133961662,-0.04163152982078672,0.017131797009712086,0.11939967672683041,-0.04454245449350715,-0.044437929005161345,-0.0004315552194891733
EREG,,,,,-0.05243377191176227,,-0.19937004727087404,,,,,-0.04477070116171441,-0.032066817279379205,,,,,,-0.02931965873670139,-0.05432515243422885,,-0.05431244916859911,,-0.10776800560830409,-0.08170066359537381,
SPTAN1,0.11309253569270628,0.3115272258081949,0.21439861622623688,0.028863204369254016,0.17728776371671914,0.24685736330846894,0.24707856656172106,-0.02063830722816657,-0.20540086566638838,0.08303123046234359,0.10341264489437098,-0.012660046294578826,0.03293195087877119,0.176671524283109,0.0114444811774016,0.1928989728786904,0.05308918495797655,0.0700829779944283,0.11565681697330243,0.19333044811084782,-0.07296031354283071,0.10617599792575254,-0.04842036382007186,0.24578988673636093,0.33312585582312243,-0.162813817625454
PTH2,,,,,,,,,,,,,,,,,,,,,,-0.05303982918380456,,,,
LIPC,0.04166752539135471,0.031451151280107455,0.012783205904812928,-0.025944507534612707,,0.03760354666304588,0.03015329245537762,-0.03977904286563492,0.09867902897381878,-0.0046619143405845,,0.0024059029460013464,-0.006977294746773168,0.02964170007366594,0.06541900527557644,0.055851836242952126,0.03745480881997497,0.026897025570379915,,,-0.012304750257763796,,,-0.06914884341967807,0.033850267549697693,
COL8A1,-0.014699031679446056,-0.14951100255474598,-0.13665934130475288,-0.03163125067802566,0.06051275728341476,0.07586485230152722,-0.05228912819999964,0.059574160228685065,0.13354930185226987,-0.045876148851440035,0.026641646333908316,-0.15797050525240663,-0.044082179297321736,0.011123593060647564,-0.109093714003717,0.03330175130136921,0.05860361007146575,-0.05007541339753294,0.0926698303807112,0.08600863220589326,-0.006869724417738104,-0.02081378053568522,0.1079714219709909,-0.19620388428824379,-0.17118850363853713,
GSTM2,0.014574023737765184,0.06890278280010118,0.01638039125484305,0.035215561724668075,-0.014706252972094696,-0.021765994917557912,-0.006043240809382662,-0.009715361973506977,0.09648584927370614,-0.03836023601077098,-0.002550128073596056,-0.00798078569834067,0.03552218623710708,-0.014740433562595495,-0.014306962399688912,0.003773588882292382,0.03572481597252092,0.018414229748654014,0.04086562988696243,-0.01640964538167239,-0.0336999693097367,0.027790024001718303,-0.014175889430979437,0.058578621333455094,-0.05247770325859238,
IL4,,,,,,,,,,,,,,,,0.05456071787817889,,,,,,,,,,
SPX,-0.05633699187414466,0.2323230640252206,0.05721306874226251,0.05462219135650464,,0.027995233817435527,0.19197034668273946,-0.06241060156164171,-0.10182242200012767,0.04304418905382871,0.0654347729328747,0.1094672174276858,,0.10949323224239903,0.02534081162942438,,,0.043472815659173644,0.0013383069230945592,-0.0007955450774781537,0.114249514188567,0.225141449804853,0.09757987917700897,0.3281502118604318,0.2867231368354555,0.05328884074149827
MFGE8,0.008165199800457268,-0.18242345572184868,-0.023771226214514374,0.06585622577509151,-0.050501213036227836,-0.058118131364497096,0.04489828293285075,0.05559982935815738,0.10876772725140159,-0.01735981486792725,0.016320844888826836,0.012798910145576804,-0.03422424489424971,-0.016185100088089918,0.007070032507603574,0.24506467598217468,0.06837698297660963,0.0004044980282344099,0.04818693914374278,-0.016387981559183334,-0.07961805487766876,0.02247098623442879,0.03539496103512491,0.057368290367671944,-0.09082358104709376,0.029184422046665246
TGFA,0.03599264868865391,-0.10595254864800352,0.15755333945496902,0.05661687055087873,0.07618772542514657,-0.04613788964354655,0.12077423881651397,0.030253955626081998,0.18680967968196913,-0.058754633447993594,-0.01472538724403912,0.042614896476191134,0.0005579098237667655,0.07100516850813934,0.0317885447760776,-0.10536138574965669,-0.005276616142741332,-0.02587659125828728,0.07982400799923639,0.09953201063858812,-0.002106304855801619,-0.029011804839098765,0.006701467478134744,0.02709101981160529,-0.03145248577105284,0.06979784595307514
SLIT2,0.013852487837245075,0.11237845374904093,-0.07286886206111412,-0.0431498326020535,0.06972588679667066,-0.02067652070957691,-0.013580938260044835,-0.013059203042992207,-0.20120998091515982,4.5314055478596116e-05,0.020455040425756833,0.015764946613478215,-0.01491893226072188,-0.011658728803956846,-0.03919121597850111,-0.02313299434380295,-0.06342946045804428,-0.024970483353932038,-0.03420846754500157,0.07400554124757136,0.030481441003949537,-0.056335914320424785,0.02436688462245711,-0.15444403093214165,-0.16366090313088355,-0.14595081742193786
PLTP,0.044867439632989344,0.22762690491478474,0.07088654617861592,-0.035137525770343195,0.19644020758989536,0.0898301088660993,-0.2478083488355789,0.05525368930240643,0.23797512753375133,0.029286790056728674,0.08879641105618247,-0.1816437865891318,0.004472756784965304,-0.03787849969844637,0.05267746362455823,-0.0031381179470167304,0.09248963777110816,0.015074560617784371,-0.1336323840976758,-0.049719905379385934,-0.023592525294817014,-0.11046280556171406,0.07525368326614087,0.12375366983765948,0.08282963277247037,-0.010974363335422219
APOD,-0.07682677674300326,0.2240244848244209,0.29003723302359224,0.008106212107876843,0.23114949114306635,0.12620663759337722,0.3659735284083202,0.0836899845639417,0.3700999234390866,-0.01668266483046753,0.012055617442854678,0.18595683772734334,0.03901549170525685,0.1737998616835229,-0.04222984727075025,-0.01863902320279379,0.10873112857178574,0.00980768277049095,0.2866286618821412,0.25031555060039345,0.062489423391179015,0.03350426235104727,0.019065659880130637,-0.04385832594562935,0.18922424956019035,0.13852373453077851
B2M,0.01523324342383505,0.0778093169276292,-0.07416830836613465,-0.1187990945225867,0.2602117080245633,-0.017157923938883143,-0.3256604690918797,0.18592480673319542,0.3575172597445656,-0.08529073264127571,0.057412764212396994,-0.126370598365689,-0.006621214678478396,-0.10012072992248175,-0.006244818135784637,0.21049770688658473,-0.015063305893572337,-0.1246922954749846,-0.06639174413098795,-0.047370804367155205,-0.09478992243234352,-0.06332961892973561,0.1339569362788442,-0.13433906765523992,0.0391817760415686,-0.01245075228733724
OMG,-0.03305218640525399,0.27957650083294205,0.36244886924677305,0.04549593472359435,0.18331791042774923,0.12059108335134588,0.39152693070635874,0.010999390142718944,0.09850307222175739,0.0956161302399302,0.021247698734957996,0.21418014366751068,0.046536627939170044,0.12160535264697626,-0.044504047529787025,0.20827077875235622,0.01336038912720284,0.05367915718544706,0.2529982027022957,0.2366807601661944,-0.00016181245728678895,0.0828380263146128,0.07453383408633876,0.24968207359415207,0.29040444786327224,0.16437304177405904
CXCL3,-0.06460162527889735,-0.22487648526041878,-0.1012763081347146,0.08237572659554115,-0.04041520909633747,-0.22155834054891027,-0.24734280098418676,,0.007328304788193488,-0.028919918008986002,0.006707340762391787,-0.07218297779393339,0.01617056124479606,-0.01042748927594023,-0.025805483697377327,-0.09481021266594965,,,-0.12625515761097347,-0.15629476182911362,-0.036888862615762345,-0.09169366639354942,-0.14188466369101893,0.0006780369327860553,-0.17735075693014765,
CXCL10,0.049875001194528035,0.06990119664569908,-0.004625623873668498,-0.05965813784143131,,-0.06030426683896697,-0.05740309404197706,0.034934902709048615,0.2088835816496832,0.009481877666902174,0.0579311249667584,-0.034828434570875894,-0.0020329329673734785,-0.01850369338140131,-0.10892779103946008,0.0030702686957479156,0.09274093807657902,0.016175106712450416,-0.04522000290351626,0.02473130861694092,0.10478805973548146,-0.06169619322473232,,0.08702853361111589,0.03681990575181772,
RSPO3,,,-0.02005618530755275,,0.06553261704544178,-0.01303510409087378,0.06963521642281066,0.003338769809710324,-0.1275616723329738,0.026854339917758655,-0.010694340171550704,0.010357768354523745,,-0.027640310317366634,,,,,0.04038394467963348,0.025132934192499463,,-0.0817985809429281,0.011119561442812367,-0.02936203636413925,0.09467454638125945,-0.0008544281096766413
CORT,-0.09889893513472287,0.020495895149910955,0.0023180698278743865,-0.023410605460218236,0.14978626131557635,0.0011789259123682178,0.12799453652568213,-0.006704317481901828,-0.1252993507072317,0.006003542087728864,-0.01714332803732995,0.06631880827824685,,0.10052156837690601,,,,,0.043823334591569126,0.07157680313029,,0.03351551570753617,0.050650131914698866,,,-0.015142204348957139
NCAN,-0.02605485274199186,0.49850779433550063,0.3607910795493217,0.12400109285821542,0.19738570402518021,0.1988888873224515,0.3772882433855453,0.11388919613755864,0.21401098805394952,0.0803124484465288,-0.0036050058353613826,-0.029688635619717206,,0.1718275494127975,0.13045277609793565,0.19315196799472065,0.02989077573421024,0.11849318935589478,0.19676544261959422,0.3126891539164188,0.06411080323024086,0.23547691596186066,0.08320722494561657,0.3471858507660673,0.4332656301674373,0.10603671369535109
PRG4,,-0.04343146040083015,-0.0636301665349985,,0.0886062866674483,-0.05210896459930821,0.10202387998370642,,-0.005773141014315307,0.06502498514065613,,,,0.05610174733713751,,,,,0.010777647327781763,0.041140489988531696,,-0.05290127600919782,,-0.09820854725262208,-0.06018190024257225,
ZG16B,,,0.0635770234869907,-0.021288428546013476,,0.00048115216575522394,,,-0.009979508009076406,0.02332363553572983,,,-0.037889618283070164,,,,,0.003035502685818056,,,,,,-0.015242686928882825,0.07054092670368785,
TGM2,0.0038193161753234638,-0.1294993655941903,-0.1806046573883776,-0.07383841017219565,-0.017396681373831723,-0.08024453844229504,-0.23099557291560552,0.007299195226106075,0.09094933619897633,-0.02068980300500828,0.017402867086237755,0.010758901908959676,0.012922081054725029,0.08078520607093477,-0.053723329473709495,-0.20505210219186268,0.08697680530651841,0.015026456312243074,-0.008762570115427113,-0.14807796337035747,-0.006826251784147989,-0.030112191970783634,0.07319708145494633,-0.04370807638449938,0.032713299337691654,0.1508437022042756
VEGFC,-0.003648344354303429,-0.04507635266272102,-0.04565874513018226,0.01961475495403545,-0.023846034729127857,0.0011566016091413363,-0.001408180046639061,-0.005652838578825288,0.04676259493343484,-0.04956868631715216,0.011532880106571313,0.05311580088724954,0.0032367961037539626,-0.0032636148658002754,-0.060593737709808644,-0.007251830028065561,0.01807318294682718,-0.012029459500720529,-0.07583857245647084,-0.0575592110481766,-0.039953261464775215,-0.04122638311859029,,0.02371456914510867,-0.07962559921081569,
WNT6,,0.012716154044999615,-0.030605393736751054,-0.03419960241805393,0.008690703149257822,0.04425725373142212,0.021973766112142294,0.012449477574569542,0.06200710610289447,-0.009455994742407896,,,0.02850939713071598,0.039777097373328484,,-0.07801091070616287,,-0.06390435710959622,-0.02686969192163995,-0.034671709584275144,,-0.015440683990630932,,-0.024383884367822548,0.014244531657721127,
NRG4,,0.038692926694496796,0.006759389088303412,,0.057211884667086835,0.0027673700342967958,0.01659593414187788,-0.0249901967513603,0.03571388952088793,-0.01815716521887155,-0.05518875908828379,0.04233068691937548,,0.04058813366637718,,,-0.0633225423637239,,,,-0.09742164663526956,-0.031344614057866566,,0.009558952684692602,0.018617762243396365,
PMCH,,,-0.05291060556430669,,,-0.026487195639275,,,,-0.007896385699547903,,,,,,,,,-0.027729386033737133,0.028476644961307168,,0.007390396482410859,,0.011745320094288988,0.07847170954129201,
COL9A1,0.06356764354651309,0.13715244285027872,0.001987755862946036,0.09769259008981192,0.0357195368792273,0.008416578421319558,0.08313045011736367,0.032767599820734385,0.15416960608890443,-0.0037414525490078784,0.012122060767821524,-0.009309780951335292,,0.004604040459992904,-0.036432062725843206,0.04961755139582664,0.08414802741569627,-0.03599701892015497,0.19150935720829781,0.21406300544530588,-0.054296603608999086,0.041259727459076266,,0.16368975663485297,0.0162627582020036,-0.061824333562274736
GDF11,0.011959648911884533,0.1692949128170543,0.15683104907470505,-0.005618599852173402,0.1679145636786479,0.030570382021989938,0.1848731415325184,0.012781969659867781,0.1969932420254321,0.05328812085369615,-0.004756846394106325,-0.03309950736356059,0.03239644116194465,0.010091726829059892,-0.019506424929821554,0.07753045895826018,0.055564492627946,0.11310441962638881,0.023648386478496656,0.03605581770716578,0.08485544429810854,-0.014369824252621993,0.06869268033021723,0.06211496968077137,0.018234910682028482,-0.026472269384602343
RAET1E,,,,,,,,,,,,,,,,,,,,,,,,0.00634010378335802,,
IL24,,,,,,,,,,,,,-0.04227010149629252,,,,,,-0.029714424761974768,-0.06087653516246729,,,,,-0.07585319706385114,
SORBS1,0.03371740617824856,0.16314125001710217,-0.019224453621353242,0.024136542987579123,0.1749723513221153,0.1523619923531515,-0.017217778235177422,0.05182140710431364,-0.007667003072683361,0.08498241823698095,-0.007696622091558293,-0.006289967480539423,0.043851970905557563,0.10534847483726756,-0.017735485832563784,0.25232626550379533,0.038855983356742445,0.0471326434911825,0.023366565523072896,0.07068758013729717,0.04968073695421392,-0.09606444139909676,0.008025354527574104,0.12655136447152834,0.11957022067340972,0.04119125731010559
DLL1,0.02641046334920846,0.1609650240767947,0.17151875412078943,0.10931726186676811,0.09102108143793965,0.12983306666879818,0.19435082027922052,0.1052028876219068,0.2705670368380888,0.07592345366121034,-0.004580175553474673,0.07567959252289976,0.0214667492999034,0.06740445783117714,-0.05866742413675573,0.17351897400177174,-0.023045561449167657,0.061061061374548614,0.19790712949207415,0.1397395401157931,0.07121541084575725,0.03693214403275861,-0.025221489427922676,0.18575180091861723,-0.019829295622957467,-0.08854425037559097
TLN1,0.009872532124714008,-0.027200345697370575,-0.08244332112782275,0.005561230759245811,-0.007985577851519654,0.1192164064491116,-0.11009608161110354,0.053038980036986184,0.3377057662801041,0.06652462944811059,0.02336357627976145,0.023357286116187887,0.032769916219988454,-0.005801480484506531,0.009786542179661656,-0.04396812277231364,0.19990681827533435,-0.034886648431354424,-0.17888929850991836,-0.04246213018236142,-0.03661294113940886,0.016507852024464986,0.11299571838422977,-0.15121925135243636,-0.15090475415329743,0.07544963994054472
COL2A1,0.014636653027300201,-0.031983323999253084,0.15452767287663352,,,,0.003729264211260629,-0.01028267170294442,0.01812462945240888,,,,,-0.01573450270753215,,,,,-0.04228687516856113,-0.03950227246232026,,-0.023560338379718635,,0.015785489000425746,-0.014316757803869208,
SHH,,,,,,-0.028406401239557705,-0.12897480082638962,0.06291210332109262,0.015594671979229698,-0.037901177607409076,0.03080833853345366,,,0.041384957063445416,0.02999971891024692,-0.06442956719039386,,,-0.0002679383062580282,-0.02016944068205023,-0.06881356299521088,-0.11149890047582363,,0.04695518253990163,-0.09150117218610089,
PON2,0.05881460667514978,0.3778939282687159,0.35900327561724826,0.14184620050007204,0.25793384079735854,0.27072884827750926,0.24265662180512834,0.024699328495609435,0.44690473928722213,0.15550568318145375,0.027650886605986604,0.07321861239839932,0.11475701290444637,0.1431061197270293,-0.060480568903589896,0.4103124092925971,0.04476541940194646,0.1424215768029111,0.053312837221743826,0.08735239745951094,0.034919975986444134,0.17046429366447377,0.11981435245598829,0.17308613381289656,0.210626350880073,0.09484161847719443
ICAM5,,0.1214034271529652,-0.022273664593223802,0.03199700121404947,0.03630884470373629,-0.011595811316401122,0.15895448646690916,-0.02486608495003411,-0.13550911765507337,0.007503493619803279,0.003480254535554605,0.043737112096586706,-0.02495263353397314,0.0069490617363017655,,,,,-0.022917959903134052,0.007667861332146803,,-0.08956165271322668,-0.028565153605814336,0.029137812833212623,0.05688804050425502,-0.1258432979830271
HPX,-0.00013299526849864778,0.03725153796146812,-0.049140809369291424,,-0.016203414208633832,-0.022065761285431675,0.026447566313344155,-0.024340858765269507,0.0620070358366284,-0.01723325004667603,-0.0049179266600714285,,-0.012987071380971313,-0.012025302063967057,0.018338913117503398,0.09958203259413832,-0.08844493847197431,0.04399190369332263,-0.05553341101602662,0.06055526120631304,-0.03597426300042712,-0.03358142716626156,,0.02640820997843206,-0.08309122641008672,
SFRP2,,-0.007773886650141663,-0.02604566942539774,,,0.0025715107191098545,,-0.011121633662086329,-0.021961227062758076,0.046286108561121204,-0.05751010127905058,-0.15799308953355085,0.02017382507570539,-0.04956275602780047,-0.034352156631719866,-0.0794087641386278,,-0.0011256341021215074,-0.025337949849898535,0.05833263071694616,0.009995949173144475,-0.13483968125597587,0.05013653186188534,0.020155377058541143,-0.010820877527401084,0.12394016552251035
CFC1,,,,,,,,0.018732684526342098,,-0.03149246947140171,,0.023372514285164542,,,,,,,,,,,,,0.052348629806722974,
CD70,,,-0.10120797049197872,,,-0.10036350012309377,,,,-0.032161614274999535,,,0.02785891366268421,,,,-0.05881383882406079,,-0.08905580542878139,-0.10163638745453221,,-0.08646554425289692,,-0.020605712902504927,-0.13811028805001274,
HP,-0.0669614423400434,0.21813644960727535,0.04805173417044198,,0.215072035863184,-0.04794550861400157,-0.256653414681556,,0.010244752586314389,-0.07221142142321293,0.06335500318134668,-0.13333803323208415,,0.006635183312713839,0.0492362591414951,0.016550823802077085,-0.04917094266934794,-0.1271951348472759,-0.1253797246825,0.0023295321043463697,0.014423630197479314,-0.0709658896081937,,-0.05591872063996155,-0.09143461658093897,
CXCL2,-0.029830703828583834,-0.10652221580009949,0.13066643004758058,0.024178554838455126,-0.004533781685754804,-0.036259137569407636,-0.11883553820533102,0.015797446163246735,0.08821236321201101,-0.03443238555089721,-0.03146662443366122,-0.07976143090994929,0.027140617660658645,0.05392887074500173,-0.05777389984468741,-0.012462421444117798,0.12999456427575762,,-0.0420280189451961,-0.13042757162293278,0.03932117639526734,-0.10243992513217863,0.032183997074550344,-0.021641706474902336,-0.21344467800566572,-0.009136499517329259
NPPB,,,-0.09515759638674301,,-0.19361740214627873,-0.2529353715207924,,,,-0.0447130876664487,,,,-0.009764867254938811,,,,,-0.04883225525122078,0.000991165688141011,,-0.07319789227319876,,-0.0769565816372525,,
CCK,-5.004875838470265e-05,0.1832873241939255,0.24471199070119765,-0.010198462459736156,0.17150741107908804,0.054216534989920066,0.3194126985773615,-0.11379820652293847,-0.4196405591960285,0.09363792553043496,-0.06314661979023668,0.049945964382193134,,0.08390802505997513,0.05606287290582299,,,-0.14211718914231425,0.0973125389173423,0.09897560023173449,0.01456440346161214,0.10887031064395446,-0.005935209428783358,-0.039829454974668006,0.28448890091603163,-0.1231042869997429
SEMA6A,-0.019277112811962274,0.3304906793784225,0.14488556054169824,0.016259133448862324,0.14832841504300875,0.1213181719744409,0.21880965634733807,0.1241836782863679,0.32044340039380725,0.11651215966577436,-0.0009399284788874217,0.10216413800616468,0.013718098928192249,0.06629461892634292,-0.013220753738836319,0.17121162675260426,0.0996851743361266,0.15063369674248142,0.10710238475424348,0.10810576061579763,0.05863853532178676,0.08236784536731505,0.07301328044007244,0.1255115368576684,-0.03134843017060893,0.14230118023154537
IRAK4,-0.014029075445862463,0.02526294813707157,0.07161170515305738,0.008349597039896885,0.033410124842471925,0.018702198141918033,-0.022295180678011138,0.07974006422520705,0.180092570097472,0.028729268153179638,-0.03244145819581821,-0.06982391562487833,0.06295988984303182,0.09134951049517111,-0.00275922995795829,-0.0069792845216687495,0.09082686120057586,-0.08393973822603115,-0.01842826388895209,0.11293692427427009,0.03551052867231538,0.0179952130860411,0.014102345723628706,0.1294207340800398,-0.04941488022029643,0.007971842778041133
GSTP1,0.06376166230463193,0.1233398571609862,0.1396807744388534,0.003923798917800866,0.1116482442189635,-0.00991602842818295,-0.028802829559117976,0.12197932167856225,0.3905245949215263,-0.03882974926525095,0.008434220827453797,-0.005875128153356144,-0.11633972358722136,0.08261006257051574,0.0035694418778939897,0.037371622926854545,-0.0181026094003718,-0.034643432690872555,0.06724558667428251,0.0947419788313641,-0.03668166297056303,-0.016610160403828907,0.10899345322080466,0.1532218083746706,0.005009328425858623,0.023682701036540146
VCAM1,0.015236421103965454,-0.0945848526125096,0.009826366745231116,0.05192115392088497,0.023375085481174354,0.04932479855201313,-0.2856248529321214,0.08112801353200806,0.25976160552656097,-0.000826692884991702,0.02522739191292962,-0.011968813761421853,0.08074156208244194,0.05100024772305822,-0.06127887433899566,0.02349951910610951,0.044143690523018746,0.04268664243021234,-0.03304265885126044,-0.038839066126971036,-0.02421870722330091,-0.03405242580469908,1.5143145228468522e-05,0.094076891421201,-0.1425118885461075,0.0754807218895307
NXPH3,0.03535799054784381,-0.05901163257051474,0.07600152949926724,0.058844031931260136,0.11695003107577909,0.03462456994401994,0.03791180126266624,0.04934793069849344,0.13347531573527807,-0.004802655159935891,0.04865973103745411,0.03156472861054271,0.07544900501540477,0.023427293294158026,0.0162957052986093,0.09478797924899662,0.15863627280211348,0.07694707881558505,0.10767762512295977,0.11077649510724702,0.03904446156397614,0.001865945032737781,0.0001503588391159052,0.25741295905423295,0.07204865393079532,0.1334292331634746
MTMR4,-0.06898728650810237,0.0544848585420314,0.13442531645811967,0.02815268675691087,0.14405886457762454,0.05872465451874073,0.04286020453920898,0.022727988164133725,0.0456497652163092,-0.03674198119983375,-0.024231082366808276,-0.051865915586624914,0.04686310445950034,0.028611244395554576,-0.010599333418744044,-0.08234539119824383,0.033512109787149656,-0.05029413494091559,0.07027026568537593,0.11285261446607456,0.0400834842908861,-0.02290151444389297,0.015992112175281483,0.05017056330746717,0.01861046962625691,0.005738605773965165
LAMC2,,-0.13068855841183152,-0.028794632093964313,,,-0.1253769075973179,,-0.013052490484957867,,-0.012046128586520119,,,-0.008527868016374751,,,,-0.0003735431973015689,,0.037179854304102054,-0.0022764812661657144,-0.038484031037716276,0.023312650880207925,,-0.013345543996528358,0.05277926118573691,
IL10,-0.018740348650789145,-0.007446564352490314,0.015276819820530734,-0.03408487622278772,0.01074694231902186,-0.03898685599646381,-0.11411253572700855,,-0.015523151535110306,-0.01768024028402107,,-0.17408973691172888,-0.012505717870513699,0.012070670776203047,0.03343698722576267,-0.03191294394385699,-0.04494689486737468,-0.06418004155726979,0.004244731798233306,-0.009760670383958552,-0.007588005647183788,0.01073067860162931,,-0.04412765704706084,-0.017086125675669635,
SEMA4D,0.008798742031709631,0.0991713246580038,0.07666739347925229,-0.00019889209103303044,0.22638953545074095,0.04473475622518192,0.09181067611762057,0.024618795275895125,0.030401428926212143,0.0751755134056227,0.011930569024706105,0.10898571896227917,0.06459687641084115,0.12180339736807187,0.006786340781461502,0.08004883173587468,0.035087243268846866,-0.051973606460880936,0.18958468611792914,0.1057670607531238,-0.05552022198274599,0.11947290405806427,0.08218279904161593,-0.0044616849483357065,0.10820544949747389,0.10479026101888955
TRH,-0.036009736813349465,0.027476139026177914,-0.16213090585758944,,0.04591983170818203,-0.042752651442847116,0.03921300608075518,0.03394060489787656,0.09595366892848178,0.001807566599920383,,-0.003102919873306881,,0.052454560532335784,-0.0077386777833460775,0.004934697135118143,,,0.028283657329792097,0.03516596511645007,-0.04444605612586839,-0.06391074459741612,0.01616390892322787,0.010268225488215307,-0.045116339660704996,
SEMA6D,0.0043819209862638354,0.33262498752846364,0.18390081847615147,0.020040927787145345,0.16901785165122207,0.13817224559799146,0.1341429934921779,0.10092810193447402,0.2104686045282928,0.16405134636199986,0.04555007253261079,0.01155087780535085,0.05901903757584225,0.07680433298925468,-0.0399416293398904,0.21209962021825698,0.06686261228924524,-0.03944143601671313,0.043169833409661185,0.0596292847327338,0.07809932285817325,-0.03187506848715468,0.18303839756741122,0.11650415306481114,0.015473000634979382,-0.035094255743455934
CEL,,,,,-0.0004918518526451108,,0.03279835767473445,,,,,,,,,-0.019592241851630224,0.102357929489501,0.07882116090424733,0.060177861124572955,-0.03298253246382871,-0.04161978408009903,0.03114451037150476,,0.02537307558821822,0.0295882572782835,
PDCD1LG2,0.007606550185215525,0.018645614018623895,-0.054615529543776846,0.020029259849685625,0.0297019492761,-0.0016501756278970326,0.0013304992599870893,0.00012394085721779746,0.09946345101486817,0.0025605511530052867,-0.014089818494163183,-0.0127372825380221,0.00730372070641223,-0.049170158196849924,0.00452981873105205,0.04116049709330652,-0.004804873526985721,-0.05999740362200359,-0.07348961487067218,0.0353001028234311,0.04699448005597524,0.0006167950009937648,,-0.022700880195733863,-0.09979935893849555,
SPINT1,0.030047599954285107,-0.023456818123214984,-0.05475359609100101,0.01655400185027264,-0.020371714756682997,0.07023732726322997,-0.02444186876901962,0.007223577732139269,0.08336300985622982,0.035263181368186715,0.009991696121639885,0.002719789885218762,-0.0009112483086470103,0.03484337387666531,-0.006590340740476434,0.05426882290166816,-0.02808648413532957,-0.03830322426035726,0.04310062810135327,0.07387325836471396,-0.0019356354420147627,0.02471141985596551,,-0.039305107598384285,-0.04794846467356664,
CTHRC1,0.016931253864261437,0.05590861129659974,0.010536346395579339,0.014442780559348141,0.04010530894970618,0.02737361241222292,-0.014600794926561272,0.12218231805982366,0.12725623430406358,0.023402859358077434,-0.009378043647932209,-0.12984879055660303,0.06537399475111282,0.01860385595652379,-0.09830650554650364,0.0819794868894119,0.13211554784618948,-0.04656778618178189,0.01614217678175233,0.04808841369987399,-0.057784066749872354,-0.09369210464445993,,0.04269052778772976,0.10671150758310081,0.07868195981117669
PODXL,0.054215142502032215,0.17204987503733452,0.011187968048485899,0.00868896890913003,0.24212235468258006,0.08951729223932373,-0.1771148709944755,0.07773354036319063,0.25985534454831766,0.09291761344707943,-0.05940561726672379,-0.021604205543098935,0.07871904732521502,0.05270094376195605,0.03317231754388321,0.31076020900813306,0.031474821049027914,0.02538963857104241,-0.10191405602935971,0.043841865072636696,0.05359170768043874,-0.04861327267799688,0.08410106505533357,0.025978257231031327,-0.04064157857395892,-0.006826163769042314
JAM3,-0.08855085235171344,0.06127203262848239,0.014649192194980301,-0.00017255388286531193,0.041239790737803636,0.06178419355744248,-0.03762786348364942,0.09495175635944039,0.3340176730380239,-0.03171200439104202,0.019641886711797646,0.12593627672226626,0.01849349991513892,0.08653057148848804,0.010303393862456128,0.08012056975754629,-0.049585672744935964,0.002421870498892783,-0.09463682898742269,0.06225272891240839,0.08799891937563734,-0.025672554223181134,-0.11401293501979962,-0.06565562893677754,-0.039201891065474406,0.029862669001318187
TGFB2,-0.007163953185387813,0.1068009188580148,-0.13571776329961727,0.028907726052680098,0.07558123597768847,-0.021849330631535182,-0.009089048519647407,-0.03237349683090766,0.23967104361625527,0.05936010836356992,0.029151193824491408,-0.0541615539001064,0.04225699246734447,-0.045884301185709984,-0.05996413906346786,0.21099561894969746,-0.0655790594037161,0.0025472240224922544,0.05214712109766819,0.06176505833545799,0.029428760188773207,0.06578206143671943,-0.0016144579676427237,-0.10536359655211287,-0.02227871541325258,0.01942715039918638
COL18A1,0.10578187720994975,0.13685574843888856,0.0051197749174132804,-0.04436552578036971,0.1722695250804172,0.013203697282814437,0.10963928557277505,0.10404473715490434,0.17116088284329567,0.020283643925809166,-0.04008977580781788,-0.186990341768955,0.07001028671561195,0.04294185422606181,-0.0008229588466498874,0.28578738402881515,0.05498700663552557,-0.003475812056407472,0.0072730025622813116,-0.038088343212761056,-0.05832236113427946,-0.16206860077519342,-0.007426250688242211,-0.056920398785310564,0.12738893744877783,-0.05940325295064293
NODAL,0.019066625891355486,,1.026366253881608e-05,0.013272283510632447,,-0.0024228036987632667,0.09441730198409402,0.033266320789579695,0.15013918246498223,,,,,-0.024503137133949658,0.019585621754963953,0.2339275678013455,0.0662054347062028,0.04589812748696144,0.0244305533523247,0.06390793714851371,-0.05832155009102688,-0.007898653385238761,,0.03364395005101279,0.08816588741384701,
INHBB,0.019116410471364642,-0.08844418597064467,0.04339664284889383,-0.03880305123768078,0.10317728884443318,-0.08801004127676626,-0.03615923286009336,0.011477416343229123,0.12136848241771368,-0.01560133828759986,0.016438954269892843,0.005907985145945063,0.09004669615509217,-0.012116738533664814,-0.03131732516516786,-0.18508250391809022,0.01578372384655147,-0.02530716005432187,-0.07361114427760569,-0.05580226872666613,0.010199130037407552,-0.09981050076844941,0.10338092080651247,0.14072198404152522,0.04739864438307998,-0.05564742327560909
LCN1,,,-0.03668108993965173,,,,,,-0.003139195048652707,,,,,,-0.015053731027063602,,,,0.02673020055953448,0.07375767309436887,,,,0.052560131110367884,-0.011684393866707733,
ARF4,0.09070000136210256,0.02427796807860259,-0.1351259538128712,0.023479553648918922,-0.1548367161104581,-0.21110315614199912,-0.15566611477593634,0.016165268544421723,0.19640327285588743,-0.048541819801829346,0.028100563253535982,-0.0034304387128948483,0.023985716234231437,-0.041628746549029934,0.016197020517759116,0.22769246947702693,-0.03792680395160943,-0.11338362508136557,0.09817302824932302,0.13610423827901158,-0.06504231082997874,-0.021461003847608344,-0.0010304576587646084,-0.12649537975141695,-0.162289830165297,-0.056833310818358
CXCL14,-0.0712063756471405,-0.04824191189483995,-0.04855732421460026,-0.020740137223680684,0.014258708387843471,-0.08833944737339436,0.04511935428580684,-0.026439715622258348,-0.22639328875095252,-0.10744080984329132,0.0030822145728488914,-0.11235754832511669,0.06616906752386993,0.05799275469103453,-0.040144566655783274,0.11056722572748738,0.003969111477177738,-0.14761278978077544,-0.20807070754091078,-0.12347191564833192,-0.08245777340218577,0.03879305981346293,-0.07527328587126338,-0.01536462587961875,-0.0332724987748473,-0.11826404901556174
LIF,0.060400008607284686,-0.25649183059871805,-0.19562468953437748,0.022055696921279663,-0.12008815485376254,-0.14115663921997917,-0.27214383870896336,0.04135422070543805,0.11391205986576992,-0.036307610469590836,0.02825659679272813,-0.1013483175047237,0.03621585173959438,-0.056074804979499966,0.026582047515132143,-0.19370215677663902,0.02762836028175457,-0.10028287386516573,-0.09824193318572887,-0.15015722881141516,-0.04113552612801998,-0.10809022569466592,-0.044966062582197465,-0.15326194901909498,-0.25866162957163236,
IL17B,,0.05181280571906342,,,0.04687879640154537,,,,0.08218673170469651,,,,0.05822932906641755,,-0.05945461493799563,0.0455021777015922,-0.018428879109226345,,0.011848811909720801,0.025979355925677815,,0.0005450066111968095,,0.02394684810586032,0.06534984249651134,
MMP1,,,-0.07547846956541195,,-0.1883778038284844,,-0.05326278083354769,,,,,,-0.005855237904979456,,-0.045179147313329254,0.20450991426409554,,,-0.0915274408355703,-0.0797593077745146,,-0.0005336072003205472,,0.03002336688835565,-0.13244573825891404,
MATN1,,0.003336504024710911,0.035059310074191295,,-0.061712522969844065,,,-0.05218233269127523,-0.047956431066062996,0.06163121045262862,,,0.04482904661327024,0.07669518791332026,,,-0.021330739767366227,,0.004517732811328275,-0.003994354682507857,-0.016889057698983898,0.009961794081495362,,-0.07361401788111101,-0.03388065082653921,
ADAM28,-0.06237455011863115,0.01837790878236441,-0.052109645854556054,-0.003454272645182968,-0.018914849717981286,0.09138180347343731,-0.04855928616727322,-0.022067521102410365,0.16986350342167297,0.00825546766337121,-0.022003394874616056,0.0125357359385057,-0.04089777335596857,-0.01433118288530565,-0.0272665312363397,-0.044984206376106624,0.07226366121033945,-0.075593741452829,-0.012658685030925897,0.06043093427834846,0.033691482401511534,-0.0366737184646926,0.046471698765454796,-0.05032903686046966,0.10664716978222379,-0.0053267586878413585
TCN2,0.05276730114613573,0.04692295236826016,0.06791505708389863,0.0751904717562535,0.10211168442951012,-0.02747205206694648,0.1035225818497193,0.04355662151191896,0.18254390015437622,0.0009840459956488828,0.030131215355132402,-0.010515604807047626,-0.08985486034327557,0.03471822103538585,0.016232900992535344,0.23205188934223867,0.03381449619141497,0.10575468344517992,0.0866498416326553,0.08270918843947851,0.021905520616157952,0.009133932689818675,0.0727757438404506,-0.07489613823222284,0.11652992361060556,0.006707705442731338
THPO,,,0.039567384207903226,,,0.003845619640967293,,-0.0030202452699620128,0.040945376323865856,0.0135709421615991,-0.030475359174978393,0.06987136264039635,,0.0065885249868222655,,0.10281116334784632,-0.0010291797866538942,0.023729631139658376,,,,-0.025649311841063307,,0.043926932214881156,-0.054742503897840813,
CUBN,0.003820114187817325,0.09697205535240591,-0.11404597760168425,0.005975566303952987,0.05120959776084145,0.02869856093635301,-0.014100041074747577,0.013441151058774562,0.09728753247306675,-0.012660402018834418,0.035020868708488265,-0.05370875654626758,0.037165883169948094,0.006301872066522691,-0.0984739198558172,0.16564263686805597,0.06690476898976858,0.01666486634181736,0.10633467860120659,0.019379382777107684,-0.09057211394241518,-0.01982672631901456,0.09412170856527592,0.1150410407088836,0.07021639356382763,
TIMP3,0.0494153245639053,0.09755404838710234,-0.03335826036032882,0.06689005409278208,-0.029789363474929883,-0.07558364803641783,0.21698726493248308,0.16684449821062308,0.22799993412475983,-0.05178822351515929,0.01849247138609363,-0.01168123627129254,-0.03648037019465394,0.033331663406118255,0.07762917167361635,0.21526310703269988,0.06777444781892203,-0.01312238900709547,0.14562997817823564,0.012222942154090385,0.017288231830148954,0.03378302436272039,-0.021756809135786842,-0.01759190140530445,0.028827110300666828,-0.017895641544652136
PIGF,0.007108890651411269,0.053374417142877724,0.15165813200951586,0.021294384446031257,0.07685075564693142,0.012712139144597005,0.06057664699848745,0.06823542411758718,0.2946525311877485,0.035043640382421186,0.05295236753193631,-0.039316471095651555,0.09722559678503005,0.041284099348449135,-0.08844984539532506,0.14411759362119078,0.04646475360512744,-0.001999280095653279,0.0872907744824438,0.14232744731271943,0.012576120841808874,-0.02249226410377697,0.13059907178079289,0.10283305833366509,-0.027156412073692328,0.0882888462743106
CRH,,,-0.009018997357173753,-0.0047553283360385265,,-0.045073912179675525,0.057456153461408505,-0.008412618308132416,-0.0976211804516776,0.026808285271735954,-0.024082377232147876,-0.00802651448655638,,0.04771624911383884,,,,,0.04016171212470593,0.04565059202119215,-0.07940806515025059,0.005695412553558173,0.03189865345410889,-4.6486506849349826e-05,0.06966348839611754,-0.08781835310277404
BDNF,,0.03600781450971081,-0.08732431252170174,0.029787699926737462,0.06516794710669763,0.022248845868733876,-0.019832809431448863,-0.11045194318729654,-0.33368841586679526,-0.015228636008857153,0.007171958570829875,-0.0338689209985588,-0.07614360858396124,-0.013795647117089123,0.053752131020632726,-0.00816000344628716,,,0.016321743468954007,0.04782488424721129,-0.1327202835533582,0.007382825025958075,-0.06260754720468947,-0.08056862505862343,-0.1653278807682353,-0.03405716563751556
CCL5,-0.06731642294567898,-0.1242155445138501,0.05566855074767598,0.018548504836324666,,0.03365690067339644,-0.21643978639064607,-0.013610324077296256,0.07641675231669635,-0.0505390390484121,0.03263164344324037,-0.03486108554814432,0.04048069741494523,0.007637444464127402,0.008407017684093234,0.02227027830002883,-0.026877913274010384,0.009519002096416089,0.015100122708053122,0.00039027141184860966,-0.023890902209782454,-0.009116385399571575,0.10054483663424847,0.09531522715287974,-0.009156053735317455,
GAD1,0.009535877441354096,0.05756867083227941,0.19190701931462759,-0.046485359816307956,0.1088330045836995,0.05934778216629648,0.2628111190764809,-0.08316653859914903,-0.3240602465557159,0.011003184895532144,-0.11601024657722742,0.01100043895090138,0.022316688482777187,0.0837865316126763,-0.06736629048323453,0.2416651009876682,0.09375358374049927,-0.04634652059138507,0.059562779545064816,0.08089687784734768,0.024325438430938755,-0.07916511965644328,-0.05024035099460177,0.10477008534015927,0.14904166760970025,-0.20196607762913188
COL14A1,0.05937360926999862,-0.023314999711968248,-0.06835923853814557,-6.903390594378662e-05,0.19551123723497987,-0.02437210778578653,-0.13016314157538914,0.0018705808760493155,0.05588259304032541,0.040212857217604994,-0.030953681169206552,-0.0610995333361664,0.04995353492188988,0.026955998354886053,-0.004321291829887558,0.1177069389806825,0.1703599509985444,-0.06913482888387745,-0.03274524397541105,-0.04453239847378641,0.018706071196775465,-0.1756224632307938,,-0.08690151701241537,-0.053338327633961485,
HLA-A,0.0997825788467434,0.21840140595811097,-0.18524116118030245,-0.03079068439958829,0.013941745197309077,-0.19687451460030758,-0.3569588476255319,0.1696796325416152,0.35104465242552324,-0.04141415500040245,0.04826973726461767,-0.07797688994382185,-0.031343381096010405,-0.1460084336872833,0.12043019052361088,0.09936960829008501,-0.012850770610020759,0.047777828039309196,-0.22083364924837837,-0.225362642944873,-0.09043276464312346,-0.06325178026115352,0.21408200965111449,-0.12096688290003191,-0.08917167338036845,-0.023377003661387105
CD5L,-0.07158268841024261,,-0.012724663787005075,0.005496294435591113,,,,,,,,0.03556001222369102,,,,,,-0.030423878421884383,,,,,,,,
FGF18,,,-0.06996083323257989,,-0.014822071677311114,-0.11420076605195724,-0.022365167829628878,0.0023837673584200286,,-0.0025766308740226033,,,0.05183050704259708,,,,,,-0.02739513359140547,0.024447386882096547,,-0.0351965331608504,,0.012940304273446751,-0.02938083371679379,
ADM,0.0915972700487385,-0.36920565675298905,-0.31507359489195075,-0.04171114653482922,-0.2969680819534897,-0.26367535013516546,-0.4561009654199662,0.024437693633091014,0.11677880881713726,-0.0646065215057083,0.0207785558465097,0.01813088638960701,-0.028056876603832378,-0.1725479952970673,-0.05631734022579915,-0.26631540900352707,-0.05416838567462334,0.02595735907479349,-0.15280264418672296,-0.24501555454494203,0.029161749548395694,-0.04745518948449999,0.10572209331563297,-0.13282338687826462,-0.34477452268155406,0.031863958247615926
CCL15,,,-0.02737418392756803,,,,,,,,0.007236522713879279,,,,0.0630945642436006,,,,,,,,,0.037292605033223514,,
GNAI2,0.02360754864869561,0.23808622536485521,-0.026875081261844194,0.019156454084495796,0.06936892142377898,0.15401307545254908,-0.07794762545697236,0.10716307461795455,0.3197511597984077,0.06058536947147568,0.05058019448021877,-0.13558613932594182,-0.06487366756270732,-0.002547748166234332,0.06897224542438626,-0.045138485015540825,0.14978607273812128,0.15984580858054656,0.08525075520029103,0.14713788446535617,-0.020656759557405945,-0.04409895276370264,0.03641159612595101,0.0122969662046684,-0.012920690690681457,0.10920162939394015
HDC,,,,,,,,,0.19557329624128952,,-0.009775966854379217,,,,,,-0.058862899912373576,,,,,,,0.19901541380982235,0.002135635376286327,
COL11A1,-0.07656432551778138,,-0.014984966918893578,0.0846640683925412,-0.009936657604481449,-0.0055688982220106886,0.08954224257078207,0.11567778265361968,-0.011789842400136823,-0.003750623596880397,0.07192101432097397,-0.07599255518975895,-0.014880949962328546,0.08370797337413514,-0.07364377988050591,0.07228981243661117,,0.041013046246132286,0.06559323004512928,-0.06381893160030308,0.009239044710871941,-0.10096636502416866,,0.1371517997746732,-0.17107997312414341,0.08101972314968188
NUCB2,0.005115795916337483,-0.06511281508884681,-0.07371564324647742,0.00896467314511491,0.031614627808000666,-0.07114814596811925,-0.09700765136662921,-0.04596514764485679,0.13162668308199466,0.017206575111264173,0.04269712223073331,-0.004069107308477469,0.08934499325211008,-0.03322384847762201,0.027168522755733563,-0.06324590875312966,0.035883763356739797,-0.0827879541167807,-0.16239279438462784,-0.04477891313912729,0.04963614015374778,-0.056928076265493704,0.05755472336220196,0.043874762644373295,-0.15379108680942358,0.08904779444687792
FGF16,,,,,,,,,,,,,,,,,,,,,,,,,0.004250256039516355,
CXCL1,,-0.04654975574116451,0.12277993512193394,0.08121216089473962,-0.024457015238996054,-0.05123809668035155,-0.10801565726356575,,0.04093252336861946,0.049575324616592364,0.04991796897135959,-0.03299477595659904,0.05938688065233867,0.01433237890584072,-0.014530852354637818,-0.010803363100580905,0.03962874642461675,,-0.05619970664156975,-0.09519541771106628,0.004470028163300448,-0.08534382981326825,-0.048925607254446904,-0.010420696480207898,-0.06896444081681953,0.10384108416446808
VCAN,0.05009558379455948,0.014056158771845254,0.12475561923587213,0.06073753784737448,0.21201892835089137,0.18745164450585813,0.1847947405931418,0.10640482008919566,0.32437409351918606,0.08427167702670278,0.07877289642212261,-0.11610895610241462,0.05689396592344616,0.0726609473478223,0.11334988377179295,0.15707695191366813,0.07433065263647416,0.21137494060889864,0.18099188452191783,0.1798247584489513,0.07764589252912162,-0.07949742305530004,0.06800426950036746,-0.11359834927054664,-0.17190200177046058,0.1659928227548259
MMP7,,-0.22772682136343358,-0.17331113652708854,,,-0.1112988083276039,,0.022753187106901655,-0.02314749827689039,0.007654845210571035,0.047759567214951976,-0.031057258242639715,0.017787277867060663,-0.006230443840640151,0.016749529241130615,-0.15699262526109514,,,-0.18217482206285784,-0.12493157600649618,,-0.1745704213243576,,-0.1633270765975926,-0.26479220156278716,
PTPN6,0.026055426189745316,0.030935865967552625,-0.03627088325049365,0.016553647819244337,0.11760120297953051,0.05501409116964698,-0.0030869032372171984,0.03869933645426048,0.1697070321527209,0.05405880561209344,0.04511557076754432,-0.013763590188576064,0.02196229489523888,0.02102126649278662,-0.07770721789088095,-0.01839215256466539,0.13245346366176905,0.03181454387494369,0.027564089699415126,0.07344990684476503,0.009689745643268154,0.005149802590731791,0.01589107317304333,0.010546778331901721,-0.024217508683343523,0.0881071279558006
PTGS2,0.02927350205284507,-0.21383142242353623,-0.15779870137992424,0.00804456181071634,-0.23417487844314477,-0.14825195771684982,-0.29380724696573984,-0.0278037263264432,-0.3385756836851875,-0.047774410048361304,0.03102605395184351,-0.07498914575742512,-0.04414762309343512,-0.022053125089054517,-0.013916974782696647,-0.012118452485294933,-0.04245131794963194,-0.08078736964088581,-0.12236387416522886,-0.21889824264574212,-0.01934186814257949,-0.08943444238960453,-0.18559098496104331,-0.15618730362925887,-0.14860327777845644,-0.08506392767947936
XCL1,0.07025233224469989,,-0.022595628176192685,,,0.018719341953264402,-0.012152830763012984,,,-0.046017088171046494,,0.02509388065486164,-0.027685682109683037,,,,,,,,,,,,0.02216592189703365,
CD58,-0.07281319393893372,0.11995935227134549,0.0012842786692884487,0.04148615456246437,0.136365181202807,-0.00952784859463546,-0.012735648270406309,0.06789587381234581,0.2610621708095788,0.03608769603184001,0.058063711885390105,-0.02144580977863939,0.06542570086373223,0.028376728836844983,-0.03745684287892687,0.06501125367663473,-0.03901736808666458,-0.048939564872364325,0.07734403093896727,0.061496260635868216,0.03427254438272206,-0.038237287749216156,0.029363229109519898,0.08626005245623244,-0.0010506624969903796,0.022479434088117322
TNFSF14,-0.024856429280310014,0.000530797494127611,-0.012636121508495132,-0.05937904376556905,0.08904090519703785,0.056058734214047175,-0.17234650288575687,,0.04523902307159947,0.04554652606037648,-0.025494996906853442,-0.11061917228759806,,,0.07951800742079128,-0.03277752353869894,,-0.03593138430820904,-0.06454883320212866,-0.0264176024800772,-0.12175071922953332,0.03537263332928659,-0.012558636147432311,-0.021794002177931197,0.018462433329871502,0.07727593673792417
CNTN4,,0.075181156031436,-0.03949460875963254,0.023982082096629533,-0.021439448916907796,0.01336670242062731,0.16859738637833135,-0.012176226215332518,-0.24433367447373971,0.026256396286232175,-0.00953621721328879,-0.06305787967158286,,0.014110275530780848,-0.10714643664722058,,,-0.014438156388268744,0.055627685777518726,0.06788278925761972,-0.007819108536414609,-0.11178161324584002,0.024929340804497664,0.020057400733598282,0.12301565471211286,-0.07303214496210991
NTF4,,,,,,-0.015828978990080587,,,,,,,,,,,,,,,,,,,,
INSL3,,,-0.02774417156228248,,,0.00042489163018352705,,,,-0.037517679999161904,,,,,,,,,-0.019946871195017684,0.003714913738805293,,-0.020118601109463185,,0.008083615828966445,,
BTLA,,,,,,0.060085017116450604,0.021527720343437896,,,,0.009842671220709056,,,,,,,0.04529162892808869,,,,,,-0.017902032430145723,,
MFNG,-0.01453188584420737,0.08118184926576207,0.0005783324077712313,0.04457987445379595,0.16139204696507076,0.100417965023917,0.11298171590910344,0.09526573851989642,0.17759061457389685,-0.011078919368683366,0.00483268457793722,0.015847293744897857,0.020025052691985616,0.08775136902261642,0.00236324956262433,0.09707013438259614,0.08579201226180926,-0.09389940324227652,0.06988275034414168,0.08498078382716802,0.017206651657553352,0.060170815203216835,0.036302535879951116,0.08460982829367529,-0.05088097531200488,0.03308820726755673
ICAM1,-0.046177978155557096,-0.1559617483581541,-0.14459893141242874,-0.026862947853475396,-0.09223975023478291,-0.06774021423581064,-0.3850961186492144,0.05837610767967197,0.11732603213696297,0.0001638843193982955,-0.0750692217282772,-0.12557359390451267,-0.007169235548772395,-0.071690595836829,-0.028646449977023057,-0.15748147977229174,0.017129197828973066,-0.07259552756620447,-0.09097318905435359,-0.06865424646203465,-0.021093510540330686,-0.043579246333700486,-0.1048656466996581,-0.03517286685582917,-0.2036794902517038,0.0028380186645511527
PROS1,-0.0640481545829426,-0.07190114834604339,-0.08795104170200656,0.004314278049235838,0.039404423408158404,-0.042830099727568044,-0.32244042160261605,0.10016853751157014,0.20209033958434736,-0.05500215845043488,0.03490245690094703,-0.013686579178657211,0.06044125467659017,-0.046520667753696926,-0.06793820861235991,-0.0018266389514857602,0.04244643736498876,-0.015385336946721805,0.0335084348263281,-0.04521668666153017,-0.10930341902087763,-0.055537525931494,0.08058556414927638,-0.14033656637331524,-0.230464109912505,-0.021008546611436342
CLCF1,0.031020752344166253,-0.1441165903072959,-0.2106947340764687,0.096132691807215,0.003680750361848823,-0.12888758765662867,-0.3076158410925826,-0.0097184449930381,0.0017981345795616153,-0.04268787800568094,0.043132458845711825,-0.10847842403348297,-0.024060288259054995,-0.09227455959369407,-0.058367344487244836,-0.10279424810570201,0.035012012616255306,-0.1559073982548446,-0.015025011507661416,-0.06394679774900301,-0.05076750271251098,-0.049749482873133404,-0.02979038538029774,-0.14805852343860537,-0.31717493820666376,
PSAP,-0.06492486684851861,0.13699022849673098,-0.21590942600938864,-0.07583211300108442,0.18160539049711616,-0.07509525982628212,-0.2589229563173895,-0.04959089038871794,-0.1568096352616997,0.07084024207021011,-0.002062953483798261,-0.10268085348872974,0.07602323217419968,0.037113179712525465,-0.009653068857271099,-0.029621592205094794,0.08159607569654985,-0.17688593617655973,-0.1390237674214591,-0.16548993582247046,-0.054298756694935765,-0.030831578856573495,0.02661610072002374,-0.22660943357693028,-0.07395088282345774,0.128274009658377
EFEMP1,0.030116637940646864,-0.21329745114148183,-0.28016904064673714,0.06915456841065709,0.1090503251497072,-0.005227116383960204,-0.4343646008163242,0.12726970953357614,0.24242154524811976,-0.0044022522734720754,0.09881153259187485,-0.06396613868292741,0.09168489072036858,-0.024020075554617718,-0.09907905002664433,-0.1401604265238637,0.10870406064658526,-0.05155358413378427,-0.08568686358845957,-0.05512747272778431,-0.08416324398241876,-0.11958971863236038,0.16829304386537858,-0.3500072788569776,-0.3873215643787865,0.049972466138100496
C1QTNF1,0.019941141729745496,0.053965197355109955,-0.13416035654927827,0.05146916563058048,-0.017167886681385636,-0.004109343158435755,-0.001236010614797003,0.031167129665609843,0.18127096088733835,0.046529265543005384,-0.016922381616630656,-0.012607084440034068,-0.03401100426501803,-0.008635991813782147,0.046695544726614795,-0.12977689485655589,0.018150130917849203,-0.05144279433626287,-0.1747772564787566,-0.15079966543783505,-0.0119163868874892,-0.07228000922515924,0.15778762556940118,-0.04086911379092272,-0.18077313657967448,0.0018231627092143929
ALB,0.05324873990391246,0.006696002014204483,-0.01793304480636648,-0.05337618617281189,,-0.018963255372757913,-0.02263712909730161,0.046616653139148596,-0.07707249866407219,-0.015269509673915,-0.02811579394010934,0.006396440876198676,-0.026082212636920482,0.04626433263791246,0.04490948209792136,-0.012660978432031388,-0.023618749500322878,-0.03776807088541841,0.02935362542127469,0.020328191427234722,0.036474452574110555,0.061305573973301455,-0.008069065196504124,-0.00937980797768406,-0.0495101331240846,-0.04926045819591866
CCL13,,,,,,,,,,,,,0.03032095815348228,,,,,,-0.05256938599631034,,,-0.013964910280568319,,,,
EFNA3,0.046635028471429966,-0.020307970703499607,-0.07556284108290483,0.06666839680677335,0.013138769286331294,-0.13435593596811043,-0.01484886649137921,-0.06315322978556644,-0.3348529848484434,-0.016264556131869858,-0.028292192874503113,-0.01973429544801634,0.01735213485663228,-0.02552468431528674,-0.05355654423735568,0.001751322299969529,0.0018292797717026077,0.008051984208853304,0.01903556688709762,-0.059015082917933254,-0.020046513836928233,-0.06395580297727575,-0.023716428235490347,0.0906529145118318,0.12874025751977658,-0.027926947136881066
DRAXIN,0.016017967904205524,0.2407374934285188,0.05955178179724029,0.08331469266304535,-0.05746745442385129,0.03839879134282813,-0.01965033078894943,0.00826935484602627,0.25294479829353805,-0.024941964548845435,0.0294607057492461,-0.04805557724654462,0.02785874184810639,-0.08245322944239826,-0.04007517137975108,-0.058985355078711485,-0.03146148480248138,0.022943882627030045,-0.07100419390354315,-0.06915503514943723,-0.02000957369067818,-0.09717155330678427,0.02704515534254231,0.04786276748946434,-0.002639390983703254,-0.039504147282124646
RAET1L,,,-0.03642653837340104,,,,,,,,-0.026815850602506935,,,,,,,,,0.0075134461819238,,0.006460257009665173,,,,
NPTX2,-0.04320401582994298,0.19366074153356058,-0.021743429118427676,0.025289488437312983,0.1729773738923958,-0.026915111478214467,0.18105338068888616,-0.09193499585313138,-0.4244271325400546,0.04419562926310296,0.007251048107481139,-0.08897682048271197,0.07684908037677911,-0.08337535810628888,-0.01896906712356341,-0.06579797173090898,,-0.10115040658518473,-0.027915431737351493,0.07429545052418811,-0.08766470583546533,-0.055542042386073416,-0.04737174191358464,-0.003937699644702704,-0.04752551260698284,0.02337660103757284
FGF11,0.009696500799010797,0.04787180346508534,-0.04940197655665647,-0.01163849818729013,-0.05313992033451222,-0.11863410471871944,-0.018689171180831632,0.08003226146891584,0.23628523094994178,-0.1004334950867874,-0.013214843751304725,0.036655701857837786,-0.006931039373342563,-0.02110323900250785,0.05943318416094702,-0.09574496013762437,0.12513627386209697,0.05962762839868942,0.059970806730204086,-0.0006062083640896598,-0.10692194924532873,-0.09968283531386075,0.0975914374950355,0.0428086493271304,-0.17621748733119424,-0.010180326445636096
CD59,0.0047495812756315195,0.2578422120917948,0.011640266776852697,-0.006346350106436485,0.1168285002570065,0.042537585924514176,-0.0019065954917761158,0.0031662363885606483,-0.19763399924361572,0.05022329753242253,-0.0359165264163649,-0.09404115276607375,0.00010341780034424768,0.07231288501562529,0.0736713594248572,0.34738984313170806,-0.032404404188329336,0.03928342488575049,-0.06257371415839387,-0.06369862861829144,0.011106589808573519,0.04070905152110246,0.02832372551709331,-0.06787327597096215,0.10332047714173896,-0.004240041185471251
COL9A2,0.005413078117192274,0.18156431953902422,0.15819757379049532,0.014014649735043376,0.23916493405698255,0.13381860979735494,0.30406545071885294,0.018914029364810306,0.2252099933393263,0.07069175205627494,0.028620814462250333,0.05906156399335459,0.00982024732119232,0.11479216413904834,-0.052884420533517044,0.3298271669171724,0.021075767470130475,-0.13678853353136963,0.20137549893468776,0.20732992501620615,-0.019799367730113843,0.07493906449956354,0.0478025580616266,0.2588157987052945,0.1273800664592273,0.16426126010430375
DLL3,-0.042689411989097814,0.25465992311942887,0.427967932221693,0.08585434093135265,0.20730839652100855,0.3235392226592745,0.12753486159878188,0.07817145164269723,0.08956334416766366,0.07833328860064778,-0.020474240751642735,0.07132170708051265,-0.06753988152457166,0.21782270475898774,0.034461365073188685,0.142745367315011,-0.00949759448334289,0.09952020466632219,0.2898380547992546,0.24130973262783417,0.0018698859664665042,0.12897926134213167,0.16286196536602596,0.35523975457729207,0.10053000559477789,-0.038639452483952286
FGF5,,,,,,,,,-0.06937173964357911,,,-0.015790736479589042,-0.004463858422370581,,,,,,,,,,,-0.11860833705754353,-0.11348372976837068,
LIN7C,-0.00641051696518443,0.05781571399485402,0.009402225430361373,-0.022492518491067863,0.15199553751435024,0.05278374209654632,0.13020050853033557,0.0482935476303427,0.17451335090129697,0.04726940859238592,0.004855094892790098,-0.008484274325196967,0.04771816844301165,0.050049184019202365,-0.05153419649817028,0.03730628628372781,0.10792892294056396,-0.0009326342941165873,0.07128427404256885,0.07551383568235975,0.013130368697490796,-0.05117549360220146,0.12936334146821682,-0.014996454311304483,0.08537359905364944,-0.05160227635736009
GDF7,0.009571818101854987,0.05118288431666241,0.0645625395015195,0.02515149104450373,,-0.015566093206949114,,0.02820302491229747,0.07829176913850176,-0.018932843832459197,-0.008456868284094601,-0.022809126656816947,,,,,,0.049098342972543216,,0.02953380437314268,-0.014079394117118579,0.03145132210115524,,0.04096374193878745,0.10064541918151353,
PSPN,0.01534567155840875,0.046978099185866096,-0.03174602514774983,0.018268108422098507,0.019647461777357777,-0.08473970527648969,0.06040479930816675,-0.01959539364118896,0.027861773213730553,-0.0648210853925142,0.008186341155478213,0.03798142444758078,0.08315583208777347,-0.018900003569709396,0.056620233483286916,0.13242512959251723,0.07396252214714692,0.03845096153397107,0.056046624534173486,0.011203749337865816,0.027348004261337808,0.03736292541326447,0.027549951652522435,0.09207881914712303,-0.044860188108811046,-0.05041510446551823
ANGPT1,0.019025857413029573,-0.031839003419331977,-0.0034915599257563626,-0.020617163801893358,0.09422555252833228,0.033992490454330324,0.06732347456842815,0.0012230577181227044,0.29097012577241765,0.10419034411452632,0.017162786650442328,0.08826093640088087,0.015227985250207004,0.008171813770403559,-0.04962183419996494,0.003268260421735256,-0.05734696398525495,-0.019675078597295823,0.017441043715973586,0.03131183014425513,-0.011206111656331954,-0.07605722072354863,0.015799994243626124,0.03213662233856003,0.10793684921186925,0.03614492131931904
PNOC,0.016121577039836923,0.0888415756704817,0.04017754579634532,-0.012756605677679427,0.1273446071702743,-0.002567722504255283,0.2470952065093745,-0.08773810657349732,-0.35495298955393484,0.10001145397884334,-0.04087559835713401,0.05129765764575232,-0.009566028650080726,0.05449363094977537,,,,,,-0.016754186816112446,,0.09205840428783962,-0.01885534055012347,-0.05349114405366528,0.0562726026733541,-0.12758942767535503
L1CAM,0.03528551473913358,0.07606854339928781,0.0656709202637783,0.041508581495363246,-0.012970280020803759,-0.012280432166749077,-0.04777408020600006,-0.01029070026327654,-0.2929699014034189,0.013365846954493213,-0.0011242640206840383,-0.0861590959575459,0.0723324348279199,0.051281692525285666,-0.007642649909002291,0.06945679119373996,0.045863137576014026,-0.11099908696293904,-0.10065870996178528,-0.08269603326895414,0.06577223061555436,-0.18113224322556093,-0.030947956862262357,0.030540753631826366,0.13834682308399762,-0.12297400272741092
APOA1,0.007766173534247331,-0.03490498666400391,0.14660490143713104,-0.0070532730969605035,0.05338591663246242,0.010536236227253234,0.00046269990111066114,0.006403722059209693,0.03789094250530076,0.011942042362579406,0.001615216023596517,-0.018481044216812122,0.04363213551824841,0.0059795048504100255,-0.015083000598505859,0.10055528617102537,0.06151234627418189,-0.018198024089887858,-0.012614916269873397,0.08180438817120161,-0.0009237874127309265,-0.06176638512468001,,0.07314354513603379,0.0010132834538830221,0.038277241754989616
PSEN1,0.029584404926292066,-0.043847887266653035,0.07267489173396573,0.0015711803635027547,0.05332324221286732,0.06501794299753272,0.09505602526719725,0.04551810049531163,0.14562174689710103,0.05161517571710801,0.0046007897141622485,0.13901295073667075,0.10515555662856665,0.0629871305489787,0.0062374998972752164,0.08151041132813878,0.044794715603802764,0.06467164649784299,0.01615902602912046,0.02134097045304819,0.03648356316053589,-0.013362379700875482,0.10542095800833169,-0.03536667058759637,-0.046270066511705746,0.022073393313841082
CALM2,-0.0008080526293131523,0.2954759543829531,0.1613405401062481,-0.06670948781380838,0.19526742160855362,0.16982530385108763,0.29915478072525425,-0.15455513867614518,-0.35055425344493696,0.1150393215999539,-0.041895699479586754,0.0875455817499342,0.08831064191723986,0.17761164308867958,-0.05923675783474861,0.20863972567609507,0.14206067300184838,-0.11328045053985698,0.13050452441870075,0.13003138513264467,-0.016531284376768533,-0.016320411686979817,-0.04448213299423919,0.22190628662142592,0.26149289812360416,0.10560019183452544
CLEC2B,-0.04597988775259029,-0.28317614267618146,-0.1933524216243698,-0.006836705341609285,-0.1781066848067536,-0.047100062433240095,-0.22900381528576866,-0.023005484792406546,0.20978803445959962,-0.08424093966407277,-0.024925578215943968,-0.09165318962242548,0.018138646394754966,-0.010421996051271358,0.005451516281194956,-0.1393301963684372,0.0026722223566444632,-0.11705579923375861,-0.08049932415671382,-0.16353027563676373,0.00502458302838927,-0.056772133241822155,0.009162308003084284,-0.0015606996549417595,-0.09970515244155084,0.021165108936076496
NTNG1,0.004565016527821517,0.005378635673259108,0.06363534767560368,-0.015792679199155796,,0.05313275164449097,-0.016558698887502242,-0.033608488209954115,0.004125747830897365,0.01822508567183264,0.00041827289365947186,-0.08183726271329224,-0.01809028117364431,0.06409437183285077,-0.10013820056325838,-0.02492441337919507,-0.12739486554607304,-0.01980753683769306,0.05088201268356587,0.11824795285723995,-0.04804306191264453,-0.05256644849662414,-0.016425450326988958,0.09382326325008854,-0.15659682058481933,-0.16022157515203378
LRIG1,0.04259073975537424,0.23738345732582267,0.16224209009523544,0.01851059489800787,0.19813386377853542,0.1386894349912248,0.2905606998997678,0.05849108691819716,0.254343655526336,0.03913975988536619,0.06009865485157683,0.006571063177538353,0.02801651704723698,0.0983123902050336,-0.03431083521321111,0.3183456078036143,0.05592661909937027,0.06871437287636024,0.22099490249225412,0.2199137948890339,0.04943253504942353,0.23037567218693325,0.033514235933392575,0.1453404296526341,0.08111729291517217,-0.03870187613934476
CPAMD8,-0.018659454544792824,,-0.027208177546005113,,,-0.019295014117029823,0.02156902326125852,0.0017057808653756672,-0.009910893904574395,-0.05360040301372127,-0.027434462176817616,-0.01500533203759341,,0.06564267300410184,0.08171128883347449,,0.03720699373450807,0.006476736727771996,,-0.007939693451854682,-0.038069548672818504,,0.00269013701037382,0.026174321101089956,0.03675109324328337,0.11372554604375622
GHRL,0.04664822574997485,,-0.03688686602926495,0.030584329646613027,,0.04137082961259767,0.1160166462923862,-0.012876131621211734,-0.0015626819507115986,0.04256502880472001,0.01207575620041771,0.04855032658562604,,0.045179085141246,0.10773661574066884,0.047015646141040986,0.08055599924411536,-0.04951919378250578,,,0.003973532181085931,-0.026454216658753114,,-0.010849408107438447,-0.061611593780610686,
NPY,0.019554814273955633,0.04039935616889641,0.04577723508789396,0.026119295610619576,0.054879444165989354,0.07170961776284591,0.22686570878717105,-0.06227970748823662,-0.1858202652592576,0.006685682191231539,0.009134866467826937,0.0667774276362996,,0.03232395220478822,0.022469429603659774,0.026422809141193944,,-0.04096985609713255,-0.12894478449090718,-0.08580078102703209,0.01070919146282567,0.0075123328599420855,0.0038374151303623883,0.059462065390646426,0.2004607768662421,0.11946172916458399
MMP2,0.008850613774741998,0.37144452810975853,0.19055213293900616,0.026969406650747034,0.1993076036727178,0.13318155232104537,0.10697259147827208,0.06700330279663293,0.3354358125580481,0.03053875763080498,-0.009068096867608498,0.010975895049052662,0.08367194201603065,0.14124187085382764,0.0532801436425992,0.26897211143139954,0.04982399854457778,-0.03779013790732588,0.03356530853102206,0.08457065998880156,-0.08620640903081458,0.0314656783279401,0.044335018628865755,0.1639753799748123,0.050171872317149493,-0.006393110421924064
LHB,,,,,,0.031316679511222,,,,,,,,,,,,,,,,,,,,
PPY,,,-0.04503194719912165,,,0.08168200739486695,,,,-0.026023510576963792,,,0.016510995495093873,,,,,,-0.06471131533345546,-0.05175283745998933,,-0.058640270166833784,,0.0004154660873290901,-0.06470966998656724,
ALKAL2,0.017278291601363648,-0.008630793644915064,-0.016457432869095973,0.06262955301612541,,-0.026315275102468606,,0.014033407721564535,-0.01309690702051635,0.030903245112210497,0.026476813799077823,-0.0374194171153691,0.04227588038545084,-0.0474281734874937,-0.060611467540838244,-0.05021895609841511,,-0.06545279877553814,-0.11680917562408072,0.030935842764018947,-0.01215488831109421,-0.04488132949231304,,-0.034048048769009555,-0.08459329021541138,0.03095586748717707
CSF1,0.03912425567689869,-0.25832283957547525,-0.1072715287033289,-0.01191253903500029,0.1371378410066382,0.021483235566119037,-0.23431837426611618,0.045132832339848834,0.1862000105833295,0.03876892295740492,0.05607389684932933,0.03289045635770813,0.04947328823715811,0.022915614915529733,0.0014296307105483078,-0.194020762962351,0.13748570779438668,-0.021547507554642145,-0.07067906569930558,-0.06148915262791943,-0.013668837686147859,-0.09098281174197992,0.11319664746808013,-0.06250863907383507,-0.06799175959945546,0.01791565695467333
SEMA4C,0.039843834740771966,-0.004834011265150387,0.012215913187525696,0.09869651872697162,0.016329322866176627,0.0919636853633003,0.05313023782333882,0.07061836195887011,0.03968289144444158,0.0017188631314409702,0.002517249718871948,0.007245562075553826,-0.012605681013122103,0.06737169421755916,0.03937080266550199,0.09052775386732603,0.1417603027462656,0.009282686517130097,0.058895097107263074,0.09101655196761146,-0.031065144695198426,-0.0010595256240087173,-0.05118355358336972,0.0919193130582182,0.04138192314778566,-0.0385048280663955
BMP8A,,,,,,,,,,,,,,,,,,,,,,,,0.05175418200289977,,
ICAM2,0.0509982305627421,0.128519198933097,0.05682535946598354,-0.032138913707956726,0.1557896092909586,0.06409257117582809,0.10666100059847801,0.04453386942662874,0.13576217068328741,0.020730889958502672,0.03815758743298569,0.02033295426728291,0.055918642358214594,0.06558909199631253,0.02841206215675478,0.18932143834252524,0.061600913570571396,0.005236034723936593,0.1364379269519124,0.06791891349721929,-0.015089112710592188,0.050110948362600216,0.05765511599598185,0.07102292233957513,0.2541699882661456,-0.056456500642213636
SYTL3,-0.01950942318037469,-0.03913158798823269,-0.08512084128250906,0.011396039287247724,-0.05040024336859368,-0.07884668498377531,-0.03831716650620158,0.04618437312973753,0.12142052224788363,-0.03365998212936934,0.00515706673331161,0.014742741308320675,0.045506337018005,0.011369779098395311,-0.021543447625982738,-0.12151425415903222,-0.03238337993195123,-0.031684842109505944,-0.06313879914194015,-0.03276970811537568,-0.01810203839676543,-0.020115806032555368,0.014993498287360773,-0.06273288227484819,-0.11945015969615413,
IL1A,0.07320745975775843,0.013074345079897676,-0.005237510484642063,0.025583525946223918,-0.0909161569726367,-0.007960590612748456,-0.07134669180866912,0.0006127135608159434,0.05912758811304055,-0.052936785087172165,0.07886448929807548,-0.06373782059704229,,-0.022655955315471304,-0.05639617116578519,-0.029844557868648494,0.023788884565119107,-0.05051316304672363,-0.044626772040634005,-0.11099599730370505,0.05362355491267477,-0.03054334024504044,-0.12192621244801483,0.02374468972978548,-0.003841598180376746,0.019861301892789736
HLA-G,,-0.01492795614916569,-0.0565269260073478,,,-0.0661599702536026,,0.009651656441788383,,,,,,,,-0.06995237788362056,0.05277668664947685,,-0.006692248915298541,-0.06225087240799835,,-0.013261992243818136,,,,
PGF,-0.01164786089848088,-0.05216430099156247,0.019272412563804683,0.017250032732886587,-0.04113260851326975,-0.01509284549482143,0.046785198889101896,0.1169889009711379,0.21181521434188041,-0.09436110215416975,0.011491691610837115,0.004295906489539669,0.03921322115164551,-0.10161733479192546,0.039813594645965206,0.1607218094166753,-0.021017632565979324,0.08781970676148179,0.1576711469372604,0.09894874542822178,0.026794680633267086,-0.03191283927479597,-0.07049162973936936,-0.005569430753564917,0.09698099163970947,0.03762798295965012
LGALS8,0.027304710371080117,-0.0034621214287920607,-0.052456097048301585,0.0022367985037177606,0.05328556602696051,0.007364578153276979,-0.0017409566539534594,0.006605657629990002,0.09477589330635718,0.07474907764920002,-0.01833978519357213,-0.0016181271573855141,0.011489886194270214,0.03098136206943827,-0.049691480547388665,0.06319633762954258,-0.021047295513474378,0.002915649733058014,0.0180373288034738,-0.018310888424235432,0.00204155559411305,-0.06885060585181317,0.07901143014555252,0.0164960022638024,-0.01807661834052608,-0.07750452708127524
DKK3,-0.0126706805905029,0.3825773307137134,0.18958206049888118,-0.02458700494689065,0.170678249955913,0.09311174896300105,0.39652615432535226,-0.10544072192314732,-0.3875030922476477,0.08189358385287734,-0.04091096555633665,0.08046999048900332,0.014694274633934919,0.16157204229942132,-0.09273786067347327,0.32953444786478836,0.029281706890571836,-0.00668150997441121,0.11764626858577222,0.16082322275528094,-0.02527299050577897,0.11029958716132507,-0.011389825839445339,0.11706984799421703,0.32302228050638215,-0.03889980113892768
COL16A1,0.08555315641931194,0.32859004531907154,0.16206829799415837,0.08918740259477186,0.2585732348789566,0.14330842765848764,0.1952021464693575,-0.01355614631206252,0.13744674499052698,0.10426927747749938,0.042908710893279724,0.09538795679858782,0.031456912244021744,0.13424062335447154,-0.006022305034313263,0.2998085160817652,0.016455868608464326,0.037918822909081884,0.03235949006175023,0.10595639003603809,-0.0325275866038329,0.016224247792335618,0.15598384278065264,0.22158875229015138,0.10801250450100226,0.019663445971642757
TPH1,-0.007493495838915637,0.04750939555075187,-0.022619748508202128,,0.07620429743297637,-0.012542566091376916,-0.0058907127590447535,0.02390851095722654,0.004458721059187899,-0.02005318669756645,,,,-0.06485147409066151,,-0.033867687157854695,0.020803930960086436,,-0.009224676777045537,0.022546231014726227,0.011826477436865645,0.003987447960723803,,-0.08717495493666305,-0.0003474127975545102,0.05148382717142415
TNC,0.10081072763174645,-0.2431012408918179,-0.2514357119369071,0.014626857315334562,-0.14182007609192562,-0.21951085040739582,-0.443607001358642,0.12284987432506708,0.3272644171294917,-0.07079190203788899,-0.002058615083622092,-0.020369042803492336,0.04990440878482795,-0.06664848081332629,-0.10595766881276053,-0.26652841626553797,0.1976916303744883,-0.06536103350193137,-0.1812044394208492,-0.23268872407661625,-0.09343246269330062,-0.2415192394671859,0.06943561876197066,-0.2672777672663695,-0.3787343243367588,0.20755044122149002
TNFSF9,-0.0003469480647152478,-0.051202862233942235,0.03366373732685351,0.005465110300004538,0.09848844461470692,-0.03284420483915041,0.119403168114781,0.003351566693357975,-0.12429744368975384,0.009288371313882089,-0.06126585766916672,0.02574884094602723,-0.008803948635083195,0.017698240145548317,,,-0.019840305347136843,-0.08432329304385752,0.0123171793475977,-0.0377597832960411,-0.027229557842403006,-0.009079079092774962,0.06329583461867233,0.05283358028133899,-0.03112285916637772,-0.10029644950643445
C4A,,,,-0.03464030015780843,,0.08583446155953343,,,,-0.045904199863608,,-0.05354757326703462,0.07655942890748436,-0.015813126421051756,,0.06307055412343864,,,-0.010370925795169366,,-0.0369898597940621,0.005167661357092721,-0.01047267641127036,-0.1091717077860507,,
CNTN2,-0.030158298065935053,0.17056489938767413,0.09784754187266424,0.019210679551463036,0.1332850390583034,0.023779566294440817,0.2515653796660405,0.07321809972332705,0.185378432497785,-0.028296951583122735,0.04087992302093357,0.1166688015549803,-0.019630995942877334,0.10187100062921357,-0.051791446400278475,-0.016742557332034343,0.053681067324698926,0.0017021033701759556,0.17592519221470895,0.17505806307739816,-0.07374860404449561,0.14589245526959593,0.08439420688855741,-0.019027423775571532,0.19096007308833482,0.16091794944400215
F7,,,0.004293525202048793,,,,,-0.04651133671205052,-0.06077688011362593,,,,-0.022526880697460897,,,,,,0.020777354736520353,,,-0.04226077169394452,,,0.03192413747600551,
LUM,0.09979015776074995,0.07052761594777131,0.011257988916759599,0.05388694893867574,0.08606811408298723,0.013825666632889939,0.0012229345768948008,-0.029890253303655447,0.22456105507067226,0.0507682976594039,-0.02534283962157251,-0.1490042465833351,-0.012620344546819954,0.079665256580611,-0.05962603003316636,0.2281676979532633,0.09192218207314494,-0.05479960573494744,-0.005375601161067095,0.07344965213898912,-0.07616415432245056,-0.11289120078291315,0.08614344133396733,-0.04692794630488247,-0.027497020786035192,
IZUMO1,-0.02623397158111637,,,,,,,,,,,,,,,,,,,,,,,,,
BTC,,,0.010530132732283336,-0.020715871533245035,,0.04615838955606042,-0.046363101845309694,,,,0.042336222337625254,-0.07607777463793593,,,,,0.045004070764410875,,0.060509107394617206,0.0206088833643205,0.06589734597240801,-0.1027344632360049,,0.006140505335018278,-0.08751924503126848,
APOC1,-0.07939807058012598,0.01574537806749687,0.1147130966713639,-0.11283252813354307,0.21421245254113205,0.08117810498870333,0.2579985086469946,0.158537669191491,0.3485198526432483,0.023211764020198037,0.03796821058477858,0.03846916091742126,-0.01091664293497709,-0.06017282415852649,-0.0978424936435334,-0.12916251181698443,-0.13106290437599563,-0.02871601222290295,0.05605760287380075,0.09750683593241566,-0.1445460447381924,0.12366092552948499,0.22109588509880143,0.12151617429220582,0.025276612469240987,0.03784714259129652
PKM,-0.013052529262889813,-0.10122147416603557,-0.20080309560588525,0.018563199900437154,-0.16233244772002572,-0.20587492604448407,-0.36047833185521416,-0.014779710554398216,-0.058563646825536,-0.007200342692904444,-0.11671741358688453,-0.11012429178330288,-0.008898431992361901,-0.11692832173278796,-0.05604677833753543,-0.35747863401857033,-0.04529605324800231,-0.03513620391159292,-0.1962800890411383,-0.26813044977291395,-0.04854135803381086,-0.14862116168604905,0.024412725611638843,-0.2888740660848808,-0.3855061014290722,-0.003930382605356265
TNF,,0.23188383387436193,0.035995734034443394,0.017919543588673516,,-0.00693671071492348,0.022383591998909238,-0.01544323124550985,0.044124272393305186,-0.019433909606612104,0.03614348182250461,-0.039298061549757804,-0.0017218922214683587,0.03262283276340124,-0.02715136411090532,-0.05605535141728467,-0.04543760250843403,0.0073620167014118165,-0.03993374294262572,-0.0476770450158615,,,,0.09726947622662423,0.03378308271020709,0.012788498835894517
GNAS,0.06561867899017564,0.4053843428897754,0.11120463733003802,-0.015882414746794776,-0.16522154500020894,0.2625726327763381,0.42515614508517346,-0.129404429660104,-0.41208364178192103,0.17716419346776874,-0.05288799030612565,0.0031528998826886724,0.04267306617940827,-0.09890189497499617,-0.04029746962549145,-0.1472471270236161,-0.045667587120501264,0.12218848291274492,-0.10236563467586726,0.025089433128676616,-0.011683640097941265,-0.11455046347300554,-0.04973306290557527,0.21729947608762842,0.33234988095518825,-0.11160702860578472
BMP8B,0.0016534720936551173,0.09881185568787824,0.04559602592971546,-0.0006266492266226065,0.03488106069868842,-0.057183987552443076,0.04890525428362544,0.06434596746961987,0.035323817051145665,0.015521973705171796,0.020001391727995577,-0.04709883099688633,-0.01802793755764959,0.02872300287447617,-0.04899739144358884,-0.03209155852518609,0.1255342957932689,-0.04447884939117718,0.0802348459066243,-0.018956051840275552,0.00893572910114236,-0.06157549935891952,0.03704276694429091,-0.063041139991771,-0.0005692878014957189,-0.04769725443571835
LIPH,,0.019559917167069014,-0.09035319547693184,,0.0001499046320948141,-0.023348364039695025,,,,-0.048652954598699234,,,,,,0.07678087285107209,,,0.0019308943727485005,0.0903616695090144,,-0.08461034203620335,,0.09655298170116192,-0.005655029700038359,
CCL28,,0.01673485694205855,-0.0015589322566902579,,,,,0.03795516076642702,,0.011128378466062435,-0.061368306713514814,0.12224702558168768,,0.019937731039056963,,-0.18096780936620863,,,,,-0.009784646623945925,,,-0.03768481161120111,0.026212567465268313,
PTPN11,0.002408169916605755,0.08169185259608429,0.09711976692475466,0.07152146263259124,0.1054767274217653,0.12175402566285967,0.04415955609501441,-0.001256839972241289,0.1398029641591329,0.060299914700849035,0.005935871910835974,0.11059806009516009,0.008908956132754256,0.021832915338073963,0.042142869978691634,-0.035207283385113315,-0.008013894521070401,0.023206727309900546,-0.007629297160389067,0.015517187232344192,0.014955621847524832,0.03121043296726798,-0.06749886656415018,0.09359686390402835,0.008395136309490592,-0.040428527015001395
ADAM12,0.018053621028183232,0.03820746748895937,-0.061453610287705074,0.07675105316064734,0.0380166009317153,-0.02256484571297123,0.016726042284245634,0.06763909461947414,0.14315653139025014,0.030235412209793235,-0.01963486651190596,-0.05609375910977469,0.14033481523629532,-0.005040404300048653,0.02697901221274782,0.10762800792155522,0.09692047051109234,0.048924784550336865,-0.062072131339203446,0.04685722458378065,-0.05356348879116691,-0.07067649086180884,-0.0008269251072779699,-0.0648710736813322,-0.026606828056789877,
EPO,,0.046726108729695084,-0.033663259959055766,,,-0.06890184327088787,-0.10458555869750781,,,0.03501120022833541,,,-0.0815558091264266,-0.00951644577083752,,,0.0073111146917587055,0.05950186189410402,0.052176875544462736,-0.013332671706421894,,-0.04235489606062297,,0.029862856874657687,,
EDN3,0.034744619503496804,0.06844121912013539,-0.008563242588993786,0.01911208780812044,0.0015229651721672091,-0.012364359796501011,0.07824701474298673,-0.06026683106143197,-0.019418535761745764,-0.003993405402956799,-0.02500516926041901,0.037946287313089834,,0.06512204263829498,,,,-0.10014265975102239,0.02844469256826974,-0.053528301348660774,-0.0022359139463806383,0.05335185497857118,,0.07861547263667676,0.025288081657819084,0.028680233915557577
CCL22,,,,-0.03215009071796281,,,,,,-0.05925563941823082,,,,,,,,,-0.004112187998234461,0.05313297349730622,-0.04455191112019347,-0.018903807395261877,-0.04544241034416917,0.010116056682155344,,
CCL2,0.03562001242211719,-0.14671758597264,-0.2028514996103889,-0.03437904220940906,0.05868264392784749,-0.10191411202224146,-0.48516428202991857,0.052899999014689635,0.004347659203709873,0.04813811457694664,0.001171426941916302,-0.13947336843828725,-0.050134230620878927,-0.009588465172629972,-0.13524021763364882,-0.05731996809295536,0.020577159027433508,-0.1431767274350144,-0.15061763072040502,-0.0535518488830514,-0.034667252061725884,-0.10171206125659074,-0.12295982342393491,-0.2585064361001445,-0.33139685292787613,0.10739312276494242
DSCAM,0.0330935842879906,0.04085742632289552,0.07626313073998428,0.03281779315567208,0.12819129394185363,0.1280708746598245,0.11408571063194335,0.008464644862987704,0.06391487008301547,0.043618767448474004,-0.0031167821366035486,-0.004216632011987336,0.0008646446056276708,-0.011890794550075225,-0.05556512495679517,-0.032319326508883965,-0.020706072936349157,0.024862220590494886,0.17157641740579174,0.1128712137322802,0.006058455428340403,-0.020567300068592986,0.07477266866868507,0.0555566397762092,0.018779965980081224,-0.044831506851891204
GPHA2,,,-0.032252471388411474,,,,,,,,,,,,,,,,,,,,,,,
ANG,-0.05118046724401348,-0.21222441753723364,-0.20697915775687054,0.010950718045430628,-0.1667465043231992,-0.1904943803208246,-0.1465659052121591,0.051058338318559236,0.14016819904782568,-0.09092213155201666,-0.04121731283376076,-0.006862972009028028,-0.015191071931449869,-0.1375264852627091,-0.004411801348176481,-0.20218534434567104,0.008006739944167743,0.03295553995826056,-0.05274124995298157,-0.1361860695186976,-0.08625466845304337,-0.03171921237161287,-0.00012318106226541227,-0.025618315597924542,-0.0477195234290394,
FBLN2,0.07093558428278797,0.11809983592449856,-0.08237205670143496,0.045072974413935124,0.0708037928986335,-0.04686371592278885,0.05587899670880202,-0.045639955132633137,-0.016929252250127643,-0.0031238735435487673,0.03755665067372073,-0.02423754024288761,0.030299398372990824,0.062380713026701166,-0.010129328861750872,-0.08631425919892668,,0.01650585399170489,0.09497491065147981,0.04972969298897935,-0.09095138579538176,-0.09683512004088123,-0.0005809594761350304,0.04437154372343198,-0.01521060243111474,-0.02501027716143983
VTN,,-0.06170378022121614,0.025915122271374203,,0.012423037132037336,-0.0023311138390160525,-0.0025495772906730728,-0.041508742673782136,0.01528570388685719,0.005757055294927108,0.04317266558434014,,,0.0630095276853883,-0.030339506635292814,0.1736534600219885,-0.05524710052103921,,-0.026395185474190244,-0.043291951820713374,,0.03126438091886395,,0.05372273060755957,-0.023961959539989395,
VEGFA,0.024041525994855224,-0.2814456813844764,-0.23963432759544842,-0.0008032479091374646,-0.32529022850737677,-0.2556241963049667,-0.4316289560103478,0.05640687297488774,0.028021949518955064,-0.0755210547388746,0.003570987329814179,-0.06796366970835162,-0.04527902140072836,-0.15463005832844,-0.05096280735892231,-0.4206653022389453,-0.08586761539673546,0.02040909408702209,-0.18709781096323855,-0.2658602690096771,0.03246414103308032,-0.14625367415062596,0.02703751652769297,-0.13492287086355875,-0.3889961025736098,0.003744812137422397
F10,,,,-0.07832055941227503,,,0.028981317132589432,-0.0020216575411300666,0.057701812287166365,0.039326338713412665,0.0036298931079805415,0.0017787941832618777,-0.014350000450339675,,0.025411710250652444,,-0.054631321501042954,,,-0.028113724552798803,7.357920329261115e-05,-0.01595230630148096,-0.027617000988741418,0.09235196420277543,0.059934551500367424,
SERPINA1,0.011365983133658483,-0.0991489077786214,-0.09371434214571271,-0.05516647275561816,0.22976318248295877,-0.03951253540156148,-0.20400981578517263,0.04767972846668908,0.16867325330194446,0.008316207014990192,-0.03069930925965304,-0.11308619937062311,-0.005624732569620045,0.01833344664795414,-0.028522007899400747,-0.17475636651393378,0.04815103946824839,-0.02370959702857405,-0.21977453383183587,-0.14681422294009572,-0.03808809217124677,-0.09450201589153666,0.09964990871280063,-0.042247926977274135,-0.2075288488216883,0.05303656529067065
VWF,0.0763040044309377,0.24974223431557588,0.09641504417605155,0.002364838123677596,0.2006610751820177,0.06512410279486162,0.23737987081580234,0.10855515915726906,0.255653164164463,0.06224234016186768,-0.0010419584321011855,0.04610718866546508,0.014152594866501061,0.0844049203453833,0.01783683474830006,0.25191477408199364,0.11475363292906997,0.09899877605809748,0.11755204617188031,0.03689769750895414,0.019413482289318364,0.09545691113515888,-0.019016936003898068,0.12963549192824286,0.2857885731277109,-0.03231906117420804
GDNF,,,0.0456802316474782,,0.02598689606941373,-0.05171607375682353,,0.009313252984364076,,,,,0.015360392856443805,-0.03278186007785724,,,-0.033304176615660784,0.014682957216891704,0.047507933365323565,-0.06929407106383492,,-0.06665361563924785,,,,0.11905778894523843
VASP,0.013836737376164764,-0.082836206098737,-0.02001974625788928,0.027117179665210024,0.04046726990549124,-0.003909377537213683,-0.10257600183939879,0.0939793116777192,0.17495296415971032,0.0554076363279577,0.03298788230614403,-0.03266823529850162,0.00898651408733162,0.0499292332759587,0.048268920133539645,0.02087375933858839,-0.06390410109710398,-0.03511339604991892,0.08953945735904731,0.0015931675805437875,0.04910944181204398,-0.0544090441829124,-0.04256273982107752,-0.062054023299326536,-0.025605698799376696,-0.09521348683650317
ADAM15,0.017023530374600422,0.049811770565936414,0.006695915430585829,0.03888780080333665,0.08273371924408633,0.031140855760326748,-0.009748957339560278,0.041199250742627536,0.16633354357799934,0.03442947617797776,0.014282258365169416,0.016332855339240594,-0.034185212732416544,-0.006835899559380978,0.0425967707778789,0.23528064440084773,0.1086800194200766,0.04182837224000082,0.03303079443818842,0.01973134260055606,-0.057246773827253426,-0.04879344160123357,0.04307373944085656,0.06474019123243484,-0.037005065685301874,-0.05427858693479212
WNT2,,0.10200344336969086,0.023160371627107258,,0.037166442799774616,,0.07370660512572141,-0.0259217017422329,-0.127123657152672,,-0.0403484656782599,-0.029996138115368783,,0.01090806623166082,,-0.0015750938337527503,,,-0.013235089200898028,-0.011945578173730266,,-0.057480896998730054,,-0.023924659386300413,0.08218017861340092,
CALCB,,-0.06054191933510313,,-0.031186554744350396,-0.0170098984859114,,-0.1495061788662689,-0.00833514049942878,-0.10285077113915983,,,-0.03320882753404573,,,,,,,-0.021500384030090823,-0.04819442375501934,,-0.04812622239113239,,,-0.06246831898615245,
OLFM2,-0.06670329863496158,0.3122031659409227,0.2004909701512818,0.07384384736685165,0.20189760785287733,0.12190391627272028,0.2202577218613056,0.014532072284214673,-0.1729739214595859,0.1477174837166766,0.042311852565843085,-0.017222610743475964,0.0841788244957176,0.027521465818724708,-0.05298484868375314,0.1866769909518842,0.08215241911260641,0.0062301236002406165,0.14499882676517276,0.2060773307628131,0.025569098309021137,0.06972484874887161,0.004108181991383563,0.2057392215124516,0.0789179595972507,0.011565139097709952
MFAP2,0.12363203636281242,0.023423217124944783,-0.07002057602319153,0.0027966430621931162,,0.04406882034512044,0.006738837226143931,0.06385176690736573,0.16361364305005074,0.04157741824373417,0.018188943045961234,-0.023986714489012156,0.021031546465973567,0.0022619009215961326,-0.013122425583051014,0.3200075569180444,0.020055767557581868,0.05491306120602134,0.09015645964091532,0.07820802861744239,-0.12151282560635479,0.018555077414192375,,0.0518061198981026,0.05301224389611949,
HLA-C,0.07154574868758552,0.13293859317432424,-0.0873086302627206,-0.03901712065857279,0.1639877722463625,-0.05000465546333498,-0.17668097232802563,0.14923970947985785,0.3157668982280944,-0.08099603133198226,0.0638900756953982,-0.14831086805590843,0.007545025240595952,-0.08747275876551779,-0.009650604119990342,0.08070273211445007,0.05554739924667386,-0.04645645059714311,-0.17619438643107788,-0.21378935607998265,-0.08203552224640144,-0.151093539720727,0.15827990605596387,0.019436820825936833,0.008825490687318787,0.015564226876631733
THBS1,0.023167425128886462,-0.04186118150571689,-0.13436164374886858,0.04332439869223243,-0.07047395349882721,-0.1004647882078354,-0.39827537685499936,0.04903498925085477,0.011825716204360754,-0.030754778664935468,0.041451833716129746,-0.19054949946843405,0.038895837916092794,0.03086157024585173,-0.038635319354856125,0.042073199155155325,0.026660625272073798,-0.0668797036390488,0.024743627007953385,0.05343407453535296,-0.06992513111452306,-0.09522664178672789,-0.05118160834901427,-0.2343921886489684,-0.2136392710723022,0.008197709818196995
HSPA4,0.09507307532295654,0.08328431260484617,-0.004189903994090591,0.032013229480804616,0.09980581312799454,-0.020025788361010852,0.021448867465620813,0.010575003746483715,0.06524497666740568,0.03909367996675454,0.005041919712829339,0.002279696070707965,-0.023862821871901838,0.008659487916886085,-0.036336389588205925,-0.019004131216724337,-0.02343888796301032,-0.04404070765898032,-0.00912681564239749,0.04166200975668001,0.01694362362396058,0.0008549446954649792,-0.027206770189301486,-0.035324285369846324,0.10530351877803813,-0.029428605505594476
LMAN1,0.08344106317605483,-0.24357779286803052,-0.23008734500767733,-0.007453928521466087,-0.2228544927656828,-0.10361555822959596,-0.2697058752238684,0.09864860665005704,0.27850501953586865,-0.10991745234042197,0.0517036553135306,-0.048981048217460035,0.01802421748931326,-0.01877911951707665,0.054645870846986154,-0.10261781533793082,-0.15325664081288035,-0.12759045797803842,-0.18386022410323394,-0.1471467549704499,-0.009885212396049708,-0.0409806628404761,0.0034056779806657315,-0.1386568043794379,-0.2046377986569167,0.08150387003635937
LYPD3,,,-0.0374932385175841,-0.02780937268323517,0.06208208264525889,-0.023818219632862573,-0.005471628884704163,0.027357416340432383,0.09208055608506598,0.03972584251509745,0.023526010158204172,0.006912278883222976,0.01718484506726009,,-0.02630379412458483,0.1238466971831614,0.07750655583339945,0.06300433625541194,0.029634494158688685,0.015161030558546814,,-0.014516118885813367,,0.03666255741723435,0.0012774519157613276,
APOE,-0.011898785244798277,0.312763316756108,0.15546935874781867,-0.06752710845149339,0.18591509012062285,0.22030185794644924,0.20380092894283286,0.15583540851530728,0.22479973031428777,0.1322982401704811,0.035625278279184526,-0.03724668292551865,-0.0058038532265345345,0.17453950727622605,0.06985283891224217,-0.07497878066402594,0.15373868232532606,0.2878256586030903,0.08775020379947258,0.12591301840259955,-0.056710186536875616,0.22503015029260315,0.18419119041312415,0.04166594089952224,0.20927508174783585,0.1559477874895951
SOSTDC1,0.06238943395520745,0.007030916414759811,0.06221755425121853,,,,0.11911441078091578,-0.01349347657621146,-0.033205435755458035,0.026289228590314056,-0.03209501003824674,0.005978412861460472,,-0.031282854930301064,,,,,0.06478096052664639,0.027541891358759254,,0.013840385367583459,,0.10433218855208139,0.06489763140863057,-0.0637056276055016
ANXA1,-0.006988566190650286,-0.18908754764965374,-0.28316513446092356,-0.027227906658278192,-0.05413773854504818,-0.05062266096487319,-0.3905621686194081,0.12081649949349478,0.32921372089158274,0.06628794033383874,0.10826544941644635,-0.1275455923254504,-0.0024776576226587703,-0.11267065208956788,-0.0802781600885832,-0.11995808452206792,-0.0060170996773456385,-0.12897708352707257,-0.08830734736957757,-0.09837766460346117,-0.04036594724825177,0.005603756915871831,0.02333772515073192,-0.2030552407402331,-0.18178996704421582,-0.02479613127603666
WNT2B,0.07903810816619708,0.08053895885916851,0.04336298929658913,0.008424642800555137,0.10284032591384307,0.06813120138683637,0.0008122872103464164,-0.050269905084615304,0.10003637073101372,-0.003129110266845597,0.005874383275382611,0.020266208264634145,0.02930662054730589,-0.07109721405547731,0.030387067039916425,0.09885941536260683,0.01697370038635675,0.01605809133854581,0.003728640959525803,0.015208628769280936,0.01746642443015623,0.004970152798390677,-0.018589651247852224,0.053894644781537486,-0.056827561320564136,-0.014700165038628778
AMH,,0.04043128176498763,-0.01151447920688756,-0.044235519277196884,0.033794859426003465,-0.059255357607406973,-0.005538830106747622,-0.004940088264202862,0.03123758758401681,-0.0191805468604624,0.0015297216981831488,,0.032112398307309914,0.0623373156719127,,,-0.012092437497853582,0.024426600983266426,0.01012662952524042,0.061991285276407154,0.055082520115315003,0.06438618945752982,,0.04218995054699107,-0.03934009657543594,
GDF10,,0.06866403507027119,-0.007136609452466671,0.052770004455559995,,,0.09889544337047311,-0.005233793869024013,-0.03546171454323718,0.0019711810185075295,-0.04044033074231871,0.046912319804695,,-0.00813918023957309,-0.07282073770244447,0.07926224556584903,-0.0017977758382362948,,0.025815593692404697,-0.011708465819590464,-0.008885910349066177,-0.04307647705602771,-0.047893396150305446,0.018999009595518975,0.0008100434948097623,0.023480775820228676
EFNB3,0.03848397258194814,0.02041320924894321,0.05764333298458479,-0.009429199658803924,0.0737250153811,0.06455200733973085,0.101452048529194,-0.1105708696992051,-0.24640377943791375,0.012169088678990237,-0.02913634543302306,0.020132438377785136,0.0590588331579161,0.02636514551010512,0.02921674077562251,-0.008488692887378132,0.14739790223160537,0.07978556640266883,0.02082931529256992,0.11627287578603317,-0.03130597473489575,-0.06358088924340827,0.07886791307023587,0.18197616181150184,0.0734661260627985,-0.11052199554439462
LTB,-0.001563631924735538,-0.040826866343282246,0.0029392684642814823,0.02399294651072625,,-0.07796488217004298,0.0710530753001758,-0.05165771280694201,-0.0670719889971097,-0.01828675487808659,-0.0074353005321466355,-0.05852476540146064,0.016310092143909844,0.04299387822821405,-0.06304767096261457,0.007054070220534857,0.06114656136084525,-0.02950776969769037,0.06883931403811516,0.06032829804533413,-0.1314675788216832,-0.040466543176415855,,0.08135077712710884,0.038899648863861984,-0.09422987462507695
ANGPT2,0.08095982212927073,0.17731539386796796,0.0705092240880117,0.007178047735090353,0.19628765701815862,0.010616015783931499,0.12301667639644748,0.09739648414015852,0.3065058803972193,-0.04305900972436855,-0.04678116294105816,-0.031423322211761036,0.07398306491002712,0.024881336517576833,0.038939473204875785,0.2296806829445977,0.07368519081781157,0.0822135925219608,0.038542273971969875,-0.006315985010214777,0.021051749080730032,0.04294769989789256,0.14756231263614428,0.07338138680935241,0.1752117888776147,0.005001813399504934
NRTN,,,,,,,,,,,,,,,,,,0.008122960712219214,,,-0.020958314831653328,0.010854427468530657,,,,-0.007288155119179004
ADAM17,0.0008899551556797013,0.02878712590787384,-0.0060754068779346184,0.05060644877310325,-0.09877066554893532,0.0817329496706234,-0.1253344824471766,0.06453912659856156,0.11588156541162525,0.05698487368348506,0.03812224939527743,-0.054700866846496374,0.017511017396027548,0.023421089498218837,-0.14370882078899852,0.05291268255002447,0.03102129565629842,-0.016219325069380106,-0.042517940801246455,-0.031960256455094836,0.020769232288837453,-0.07297785947115577,-0.08380091401751304,0.07744012567397403,-0.09474906139757719,0.09374662536282789
LRPAP1,-0.0010143524492960661,0.13375647752482597,0.125420196898708,0.04659749457908401,0.1826122515169604,0.021569472247942662,0.027141467121752565,-0.06754785595663453,0.2148640959450885,0.02992579836397016,-0.07613500747298078,0.08003656404225419,-0.03619431380854304,0.0027449057859157636,-0.0032709380866509635,0.0743046864855073,-0.02087925644200415,0.03292048150606966,0.08582447574251872,0.12597136262460906,-0.0627018500611064,0.018429838482814872,0.10507188706520222,0.08728699119031777,0.05433469836048661,-0.011922879323005748
