,MGH258,UKF243,UKF248,UKF251,UKF255,UKF259,UKF260,UKF266,UKF269,UKF275,UKF296,UKF304,UKF313,UKF334,ZH1007inf,ZH1007nec,ZH1019T1,ZH1019inf,ZH8811Abulk,ZH8811Bbulk,ZH8812bulk,ZH881T1,ZH881inf,ZH916T1,ZH916bulk,ZH916inf
IGFL3,,,,,,,,,0.048210483232156244,,,,,,,,,,,,-0.04870274701901652,,,0.010556913175093089,,
BMP1,0.0625414179064238,0.11408583318752144,0.4283707787440724,0.012808033666362816,0.12445544860102821,0.15143208992002086,0.09955978531336344,0.20463936136244482,0.4021725327724457,0.04720528743843673,-0.057173671770480564,0.05994878623288277,0.22252101349440107,-0.028274840443055158,0.2562459455529105,0.14156834929731502,0.195490869249538,0.2803163841566966,0.26354366049975136,0.1658220491924835,0.23107050823540012,0.3094508698663421,-0.03668505622327622,0.44147928050302887,0.19635424559217352,-0.007063447365156526
NDP,0.09660717906679595,0.10564114503176011,0.07652102806533113,-0.007366483548374251,0.03611861031979607,0.08667743927437932,0.002008270950174527,0.014320992270092758,0.03529459373142961,-0.04498509326308983,0.013522619545464545,0.024687125593292097,0.14354767569087812,0.018141855974534705,0.04548770407920443,0.1057471907138914,0.07326666519243949,0.0182655660405851,0.03498204237129235,0.04708577890203839,0.16821215866377984,-0.10249957315005233,0.03320830257342089,-0.10338593742396604,-0.042919104524956994,-0.05327025074017226
TNFSF18,-0.005519362562285019,0.049711727099505235,0.1159910060928715,0.022514914561558245,,,,0.013547124508123799,0.17443817494509883,0.03819707017127564,,,,,0.06920356350591371,,0.018610583433591284,,,,0.1073257570276443,,0.002116527763418524,0.09110879300409098,-0.03525183575025558,
IL36G,,,,,,,,,,,,,,0.02745283608494517,,,,,,,,,,,,
RTN4,-0.12855099524760583,-0.01650653504028019,-0.006145842677538772,0.03557354328037957,-0.0347263612519869,-0.04597162990067273,0.03586183012108842,-0.16819901989381938,-0.4117523712797815,-0.028571941109589785,0.006777315353005282,0.10302727161726812,-0.08602646208970763,0.1590605961232684,-0.07406643498733122,0.21968722278558728,0.12631037705660075,-0.09834486506449151,-0.14127232385144228,0.015847588962675442,-0.29700239717587057,-0.15368511231494317,-0.09856518418662745,-0.13838430754776346,0.2698995744603836,0.09320398421733947
HEBP1,-0.06165757416625544,-0.016261264356017678,0.07456296559034689,-0.010053169944321002,-0.027020615247381814,-0.010167704136843892,0.00790839353263454,0.059269171210047315,0.16429312973881624,0.030943552434553268,0.013074899287977415,0.027340943760162228,0.07769617579226527,-0.03388466655183165,0.06443948898959874,0.12095082268132183,0.06749379583663628,0.030325778470641496,0.03201372751263565,0.06657471208671904,-0.03493600323930699,-0.012432930760715739,-0.031720401531488314,0.051182145578667064,-0.09363891407343812,0.01296004414759266
WNT7B,0.06501360389315089,0.08438152870267365,-0.021708619329686134,-0.02805125990854488,0.08929049743212703,-0.07459635867274708,-0.0027291207506090908,0.03080409583951726,-0.03680221684604695,-0.028253638447887034,0.016097088859584205,,0.06755876129179698,0.06978110100591478,0.11770345180448888,0.06809427805015537,,0.06322175652479692,0.054170128017276845,-0.01457105936653171,0.02128571745390094,-0.04084699836445676,-0.021606097727270887,0.0876447251993649,-0.04506026923672457,0.1561855816284546
PTMA,0.013495924896660742,-0.16090532192471063,0.18460603430233852,0.014130677097213449,0.10030080085913463,-0.023783342657397965,0.021047124211123015,0.24247091750310829,-0.29679128785123055,-0.04712829797156446,0.019452965770044545,-0.12412953360125917,0.30689552067449627,-0.2160960970002167,0.3056105739555844,0.13173138052071623,0.061505300461229144,-0.11986804679889758,-0.029661879068900384,-0.013922116792638987,-0.2344761885974891,0.06457176764118956,-0.031203014798846622,0.3530392526410947,-0.001922429909228411,-0.11433205644668992
FASLG,0.011932789005006954,,,,,,,,,,,,,,,,,,,,,,,0.01804847987021735,,
CEACAM1,0.05243740268092903,,0.02699446188222893,0.01687221277249976,,-0.0019355934095479249,-0.04498415763066293,,0.1271190689636994,-0.011839257062421688,,,,,,-0.029086122701269444,-0.0022182549041587837,0.03051296407113449,-0.06413037014688885,-0.022639349126510108,0.0794986829841694,0.018074538229215262,,0.02969852217992328,,
PDAP1,0.10968195120750988,-0.00939862381868666,0.04147869929941104,0.03587121926949918,-0.022853238422450076,-0.07057791532239406,-0.006494379174292268,0.09313815337492048,0.3260169165964225,-0.00780139231838002,0.006882547719805744,0.05649535886447492,0.24065820000068683,-0.029964552316838006,0.0013670422512716844,0.03224880714146437,-0.037551377153971895,0.02604079915977386,-0.014459418772768868,0.01155607985732591,-0.004904791190529685,0.0023770977365883176,-0.0474929079593828,-0.11608711146299411,-0.19320978822951806,0.017416119717555363
QDPR,-0.14651780596127592,0.1311447208981531,-0.19957944931086904,0.03972619188332425,0.09221109564193754,-0.027644124050964055,-0.019500485949287456,-0.01680532003585835,-0.4838212106626006,0.07850144988928467,-0.030667692591013457,-0.10049429906605532,0.15457099849582873,0.05342893992251051,-0.21702435931736894,0.06717597233365247,-0.029397575454571837,-0.23371607857480342,-0.05572436441714832,0.013005222890838336,-0.24427150701741016,-0.16248465922106853,0.006936585362609689,-0.09573554359974003,0.17637255555989145,-0.08969309692214118
POMC,0.05007928807280781,0.13392448795009648,0.15617367884560115,0.01205551910527835,,-0.02656131362215553,-0.042470501364852226,0.04288710028616232,0.0772923567883948,-0.039070986200672266,0.011795767250612422,0.03848518047024442,0.03832521080854065,0.07417628422397844,0.13277501725077367,0.06607204911603402,0.08579360147420065,0.010936271129533114,0.06408244853286052,0.04159941490152917,0.02777709501477772,0.060472226967887815,,0.08727870960833023,0.08994058637191317,0.11972577930161181
CCL18,,-0.0211274394989393,-0.15478584532889994,,,,,,,,,-0.0351259768333834,0.20932467221818613,,,0.12499089372455889,,-0.005246142606248044,0.026055010509348907,0.07497512904025486,,0.033800101633014897,,,,
CCL17,,,,,,0.025664833353237694,,,,-0.009644808832007001,-0.003627782725806405,,,0.04139721665086845,,,,,0.03009185330431208,0.10143233102187141,0.05119487986281538,,,-0.02163361789517262,,
VEGFD,,0.039420952655030386,0.043930961453106626,0.06590716169436421,,-0.05174512470817805,0.09126893586704997,,0.057070492745721096,0.07621724861922266,-0.01337858011888416,-0.014499826444720086,0.10201821468706623,-0.004503509031491607,,-0.003241459695657352,-0.042461669188368904,,,-0.030486346179650032,0.004787680528162879,,,,,
TNFSF13,,,0.0539886741203201,,,0.04799377299157014,,0.054127240155734245,,,,,,,,,,,0.06290545817243462,-0.021857609058648052,0.1765477806401137,-0.008558223982591134,,0.0961674053413983,0.04286249493763052,
WNT5A,0.007078833200586622,0.056744170516459386,0.0914331106998754,0.06347046489434166,0.08561240406522996,0.00494149836673785,0.006745897468929632,0.19450546291137424,0.29122674886564714,0.0918475067083065,0.02282297617094382,0.06524972877735731,0.09714956726453489,0.007612398367559444,0.09820613380147125,0.06846448904872171,0.06961880273905435,0.16304942273777476,0.035866756685126566,0.016690472269910057,0.11123237063834705,0.11902487534385658,0.12255210896278586,0.11981175554995271,-0.020606687803300484,-0.020149565455422937
CXCL8,,-0.16732387808818575,-0.18932155993799735,-0.01941546393042992,-0.10823695066908856,-0.08374952010963975,-0.07756091623171606,0.022101373058195168,0.1771061542006294,0.00022976141538281594,0.0010517919372768595,-0.01850759373744602,-0.05522466833141634,0.020695068525242333,,0.07279944984574307,0.04751339718738685,-0.08028685839614716,0.1458815243485545,0.09322975491126259,0.02055353498995277,0.09304128255418163,0.016237183720475737,-0.08667926099471002,-0.2816186601737056,-0.015189774582544223
GRN,-0.1750864875905558,0.07979947929409903,0.4453562071007724,0.014466682152132856,0.18296094300087845,0.11390353779111957,0.10334994379998015,0.11252389886844648,0.3443438586373044,0.03625430307772624,-0.05684416976835995,-0.030321323461349095,-0.04811960513082418,0.18559622853618613,0.03598423345327039,0.14477766443078155,0.3026235350429028,0.2657216422594981,0.14415974397456202,0.13294846947073147,0.27472091703155177,0.2560985975421618,0.11995787664075602,0.33014081224693875,0.3055398518631977,-0.04207635973472792
MIA,-0.007447420578030417,0.0021322234038119036,-0.019413709238358664,-0.036492629456475335,-0.04455805473645208,-0.07232572213991664,-0.011190818823551649,0.14171382470025243,0.1384094555332075,0.05131144369436604,0.018555559162214894,,-0.07330422987927449,0.0007539427726703872,0.09701956091896409,0.0398188844914604,0.05679463240260276,0.06412301453855769,0.005009640519843924,-0.04447038907205905,0.1274520735019234,0.20199720939717053,,-0.0027871517754646242,-0.016176482283920525,
COL4A4,0.017169342178062257,0.04787490497642671,0.028326417718735727,-0.011579708662103538,-0.011786796571046818,-0.010515935596002243,0.06240427239346718,0.024658659886277773,0.017553201228866597,0.015550088157026335,-0.001942307114537827,,,0.0006465809985914491,,,0.06346267141361461,0.08024707824002474,0.019992974957435617,-0.09126055050755916,-0.04757461068361504,0.020999931428546892,,-2.1725633071148714e-06,-0.08351528509523086,
TAC1,0.017052325987344397,0.0494912639264791,-0.043272323419518574,-0.010887843337900794,0.10223050422700912,-0.069525869445388,0.029433020195554906,-0.0934935156300639,-0.19814652324746332,-0.03094904487547679,0.017738146752564205,0.08983816131864784,,0.12107877426775356,,,,,,,,-0.10460599664443501,-0.04576506501770636,0.013258520411362029,0.17067306854880565,0.16196425599811676
RARRES2,0.18356350517593606,0.03817098725932821,-0.1528730711319633,-0.04867742191254743,-0.09881915848041643,-0.1020054199739261,-0.07919429298730554,0.097970797751886,0.33519170126154013,-0.06463452039572422,0.07085554736204078,-0.0066050276717553105,-0.1692802712853418,-0.1441986298046255,-0.15949818997759604,-0.08357521513256637,-0.21412642024181877,0.091690091304938,0.12053133305565801,0.1611980851310298,-0.02981139837155975,0.07419937524025304,-0.006064412190627837,-0.1031264959340928,-0.413113532595208,0.02310447789869972
FGF7,0.029823035512723025,-0.004578740081372226,,0.0156717008352832,-0.05687655106763908,0.004971313835753733,0.051435875111116094,0.03964381118255627,0.09588738774890516,-0.01829091510074964,-0.042563252788595914,0.07642715283447402,0.04235138801187123,-0.020242237300188003,0.11663687289487967,0.06973552300584378,0.07105168226966002,0.04172836631669171,-0.0476966858862617,0.019430308718790524,-0.04629224176125657,-0.03198031859541758,0.06058681222400021,-0.11977197008988123,0.06595253870575332,0.013341367188162897
EFNA2,,,,,,,,,,,,,,,,,,,,-0.011770377467036975,,,,,,
HBEGF,0.08306401941427868,0.09472704099196182,0.3850234958882375,0.04565987030760606,-0.03493090247906919,0.011099213192560287,0.03170224075869756,0.1632228099497371,0.22147195150902524,0.008382636673792365,-0.01375821020536287,-0.026692521528917296,0.18695085332854475,0.04803052499703834,0.11085300022194337,0.1647570935138624,0.12810954942431327,0.1653517220678258,0.0008469266633845341,0.08777483019107009,0.048013291270881116,0.16092521590675765,0.028065683508510582,0.15088840581330273,-0.019347176470958325,0.04109573652181445
CSF3,,0.014959252581304665,,,-0.055524533571254926,-0.1059483864691189,0.03866826120537824,,0.06779885331045953,,,,-0.03263948898228958,,,,,,0.14763762284416096,0.11045840621485957,,-0.008370382620011028,-0.040167359742394146,-0.06037232658229918,-0.12097768146607663,
PI3,,-0.044507777608155275,-0.12688378734409503,,-0.08376874944116226,-0.09530324277998636,0.03844689071664316,,0.0814842320325157,,,,,,,0.01479889650446156,,,0.06964146142367576,0.1348389842395701,0.11621211497566768,0.11871905016792669,,-0.16567365460785277,-0.31562645222587793,
PCSK1N,0.1016183959151614,0.12380125763684807,-0.013617259325722,0.019394504103610953,0.07590001246749987,0.01115429490605528,-0.02618940723442434,-0.04007075313981611,-0.028229074392164554,0.0779010908515221,0.03589953250166253,0.050775426697692805,0.10347051898555318,0.14343264853849988,0.020895985250519396,0.0041390048340980085,0.014198873861450502,0.05840905615669737,-0.05640123568344225,-0.045761063621692334,0.08712734092831412,-0.09115897994409014,-0.007748099959585713,-0.2368870174676843,0.242755569755444,0.10520854008310498
NTS,,,,,,,-0.0008260355919921646,-0.015756260329353247,0.007948393781369448,-0.04652907867354093,-0.007885908017150646,0.013985169172224214,,,,,,,-0.018405802050059858,-0.07285924293481343,,-0.1049655368780395,,-0.03043660850237915,,
SFRP1,0.0005194227711336019,0.12435327025447032,-0.010420197545828994,0.0519954861177956,,0.04201146480098523,0.036028901179495365,0.049108645286788925,0.054984576447945355,-0.026968271465270144,0.029665382394160854,-0.03926504342840278,0.10551035260024182,0.015372197334487334,-0.1323003379333328,-0.04425235501293501,0.03349608621162331,0.014715738544175651,0.06856281505660235,0.012588442114214083,-0.12105528681719646,0.0018249249307815622,-0.022309077275514688,0.05726260342671551,0.020029402010871503,0.06376213966840474
CXCL13,,,,-0.040606679372832216,-0.004302440421154397,,-0.0009199129984755058,,,,,,0.14133355687713392,,,,,,0.07815010954503898,0.10982803592398702,,0.0800860226277096,,,0.058945260906789816,
MICA,0.05102125144529175,0.034843331439512425,0.23064677499606845,0.04725714254239703,0.03993829936660222,0.0004927063469329816,0.0020399245535935515,0.008062352944969342,0.2680151411973573,-0.03358812549517447,0.014516857971020286,0.02285110537004079,0.047513680679004036,-0.010649750489248287,0.12515705141473135,-0.02777218519470818,0.12615857534485783,0.09574013317326634,0.11782524302999797,0.06422787385444265,0.2081165164474402,0.08179437810857083,0.010145837698629019,0.1518966752592669,-0.035852609689408274,0.03112519023826391
TG,0.06410191660136604,0.014573880892309711,-0.027234093674138468,0.1108222201356408,,0.01478662617094757,0.04331867243746104,0.029167626355019113,0.06439528301689906,0.006378449734483849,0.026477098553209632,,0.09772087592506082,-0.01750250178024249,-0.02830297678358234,0.01335255886627838,0.08252304547984707,0.02412392965210486,-0.01751239040606033,0.004120138361277464,,-0.07656543963969288,,0.06690051337175756,-0.05137274905172775,
ADA,0.041482629667235836,-0.013632524958702916,0.32978290847638814,0.038689246809505425,0.013950710858181751,0.04716746453273267,0.11268463480519247,0.18998449411204546,0.2722755574794243,0.04017468540052649,0.012912804490950502,-0.04464945852967971,0.2451448255867356,0.08228049095339046,0.1068982118970097,-0.04109174086904667,0.2182677195140666,0.10219502603101716,0.17368589986696448,0.10940376046379131,0.10875110018934907,0.13089806420342523,0.045903733271406295,0.3133796990533655,0.09151048879928109,0.14011241325129278
LAMC3,0.20946414325510965,0.10679586583584164,0.6304199983756085,0.04620958623205361,0.2501260747395227,0.2827560462480942,0.14277528627665892,0.22156941602344157,0.47036953698033196,0.08405861098675944,0.006125428150039951,0.051012496584194746,0.19759683725130955,0.21128527467670563,0.3626487947387494,0.27942243797726923,0.4220135937884695,0.4191057712317556,0.19707579643508244,0.14826170047766352,0.3944423229288832,0.3495582103443566,0.20784291870261926,0.48580804384187715,0.37663782801380574,-0.09942283646858678
CCL7,,,-0.07041187992147617,,,0.05731490924410768,0.025313111872402237,,,,,,,,,,,,0.03349171232982068,,,,,-0.06135826479694135,-0.23317562019253393,
NGF,,-0.007471255380652647,0.09277749337049636,,,-0.11602017741762374,-0.0010656391565063744,0.014110650183913593,,,,0.0009980332154050544,0.1905769036988256,,,,-0.012598162939043983,-0.005842692622520885,0.03535736245592117,-0.09655015135595695,,0.13108480654160698,,0.09099948448484771,0.024887104686988203,
TNFSF15,,0.043327393713380805,,,,-0.012568104589183917,-0.0021938461218667343,0.07378033471178652,,,,,0.031396541629874125,,0.0760197776593746,,-0.0315058894987529,0.06017236136452697,0.014644768842755661,,,0.01725299745495799,,0.08438537474971852,0.005558678532395232,
HMGB1,0.011361459929768192,0.10595082023499211,0.07961547542799387,0.003418102884403904,0.13942406952435699,0.05653666348525001,0.0018973142746286239,0.1362280666927096,0.26846549079595183,0.015603481055291116,0.0010912489283932275,-0.051347721750865195,0.26930343370264925,0.07352847025758569,-0.08936511520790218,-0.038307003619846,-0.004784900938026157,-0.10656193118482955,-0.015852570108250776,0.05617229291161344,-0.08492186727128385,0.09417527124040004,-0.020714343786994854,-0.11721856062069502,0.018967625165777144,0.03022298508136549
ITGB3BP,-0.015282385152314308,-0.08384907209622544,0.006389811462876942,0.05810135078567817,0.030061113690086242,-0.021767311235102282,0.05186123933508291,0.14617625187255817,0.27569675105422486,-0.009508163217708823,-0.02580221720068713,0.03194407150321075,0.2038555850981388,-0.03764857506023457,0.07905525107324386,-0.09658605021209454,0.023622625296784765,0.10893831793707527,0.10388545913614547,0.0664444038998267,0.010781294594670433,0.06720456383790174,0.10828353701846558,-0.040538277288982766,-0.058263485107597886,0.021389219443376878
AANAT,,0.06825890657285857,-0.024738900391544187,,,-4.8930311799564765e-05,0.05623612663084247,,0.013658945318279448,0.02162622213679649,0.011982673567392757,-0.0006721835889087347,,-0.003130320452677801,,-0.026039787458171273,,-0.042990938275679444,0.033811510019316426,-0.03792794482895204,0.0585396029688742,,,-0.01821408229061859,-0.014728585314068064,
RELN,0.07529820166047053,0.0758244114011484,0.05916062408286036,0.007128377665275382,0.07604172466095264,0.011541699913199102,0.08785102757744383,0.003702443240018695,-0.10892405685180027,-0.03909046625679081,0.03027331766356702,0.10696413491879882,,0.006423854426321719,,,0.0308965204332226,,,,0.01804272790262343,-0.000645995127049517,0.11149178499126015,,0.07516580391095133,-0.07804308569224933
IL15,-0.002668100726743476,0.057967183251128394,0.04732224059436276,0.05676303278059302,,0.05593340952702917,-0.037400092989957875,0.02090378143034424,0.1583278380568371,0.00383468069438816,0.016101955350048557,-0.041959101339934836,0.04718300577620766,-0.02470958437941672,0.012188184877633441,-0.021811134871601738,0.08705767490861117,0.050358856036272145,0.054360663807710985,0.031065581622013137,0.1107188084098224,0.01474529062060657,-0.0424830872352226,0.09510085624719665,-0.07612480807014654,
UTS2,,,,,,,,,0.23281378333059288,,,,,,0.01409414997055551,-0.08762820023083112,,,-0.017365733674144606,,,,,,,
BSG,0.2052809470059766,0.001314081699501673,0.11679077037321234,0.007105798222092028,0.05175731987291311,-0.06372350179521799,0.11103454125393002,0.07764755648343336,0.0915824318665496,0.041369811599623184,0.001300882105109275,0.08888612306473717,-0.07410474001218818,-0.15850376278824338,-0.060975538671800215,0.16275358810520776,0.13952814960450502,0.19836991167848972,0.11004219157469894,0.1716895097102104,0.3572681632578032,0.20480410829672252,-0.014518290628580816,0.02667836094188873,-0.09083982449575785,0.09985963911669742
ADAMTS3,0.0633834481685498,0.011862252332271705,0.16836814925846338,0.05467077537518667,,-0.05538095860811898,-0.008326108584755416,-0.008606976112142476,0.3828687724017718,0.011023704245109048,0.028202094768631045,0.027269848519901146,0.03810220425726211,0.045288502700305294,0.12009733233683101,0.021499205249154003,,-0.012128024299100953,-0.052450528980515616,0.00010525905001709638,0.17953075740129967,-0.05739373024936961,0.017382951223292333,0.047171345110871316,-0.004799647535369048,
CD34,0.1883448583807816,0.1458296265845922,0.5485488831056593,0.04955364177435016,0.22655200249691745,0.1494575279459782,0.20241435273417765,0.1802164645079305,0.41285448322431745,0.025034171306777462,0.016474735638849655,0.07120426742124274,0.2362439101695402,0.044236522802319364,0.3094644812327994,0.28986101682609505,0.42860494172782004,0.42282539809744024,0.1005867078570888,0.06147863670120918,0.3456884095681706,0.2564406587461378,0.10298159130870947,0.39348804976064405,0.22211385206276324,0.007133142335804696
CCL23,,,,,,,,,0.10766234228335955,,,,,,0.00976395481036407,,,,,,,,,,,
PLAT,0.20021523052435464,0.13112560859944966,0.45054927461589434,-0.016107266510690065,0.05209732197007843,0.11970234527473558,0.11616375754102902,0.20773325201833256,0.3728293522115667,0.0908346698814306,-0.033562308523556295,-0.043198111467021294,0.07635702603688664,0.03961095741193045,0.2635518755909136,0.051426935470410925,0.24704972601588437,0.26051213737742074,-0.07816180538711547,-0.023157644479718895,0.24429782507456527,0.12499786011277661,-0.018878854684565537,0.20040223539042898,0.156181208735892,0.009090756041365002
NTF3,,,,,,,,,,,0.004013509681574491,,0.057748508867544505,,,,,,0.0019552903615267514,-0.08760454840175223,,-0.06685006361675393,,,,
LTA,,,,0.0036749782010511655,,-0.0396650284239846,,,,-0.04232936691575985,,,,-0.016932524116967194,,,,,,,,,,0.012398964363119599,,
CKLF,-0.07633683508361241,0.08486942787161546,0.2650988031001167,0.009754977939012621,0.0006043799872439898,0.00814164283987845,0.034596627305822386,0.17634407261587698,0.38179244243279437,0.04903861627456474,-0.013135246237268156,-0.016368516787118252,0.1792905908593401,-0.02942889619153963,-0.0331358390500306,0.04111564107279592,0.08906564574604506,0.19392239065928862,0.03816155254679913,-0.0008709273665720637,0.09878496567408027,0.0763063338843413,-0.06178297431906105,0.03960475694496391,-0.05451099776025968,0.016420928732036315
APELA,,,,,,,,,,,,,0.04700393293463673,,,,,,,,,,,,,
CD24,-0.04116598941458059,-0.08687063207722434,0.06638178431055662,0.12325698134050062,-0.015672728720236465,-0.014420078217404502,0.023134608437982932,0.013899382065488448,0.08927818566113407,-0.017407794729893605,-0.005342011150264724,0.042931942197945536,0.23822082388158594,-0.044237564142645236,-0.0005404164265530592,-0.10448982516584975,-0.23458417176419158,0.11152692366834722,-0.20164436917058656,-0.08767268482987318,-0.001396518821506104,-0.2107429875245322,0.017323155737902246,-0.22898400496865304,-0.10985152898484378,0.06637239211929306
HSP90AA1,-0.19204406132319538,-0.05500982942202676,-0.26811858238110076,0.04434591419355423,-0.1417410290586006,-0.054349347353922495,-0.001816209082116688,-0.18334211347051985,-0.40138068611649785,-0.005435600588352037,-0.019102588321638393,0.14224409631688262,0.007712612950614839,0.15995377061482913,0.06319994228579177,0.10462047594811592,-0.05083303921602755,-0.17496360552143392,0.0315150006126048,0.09988703274475014,-0.07152148958777743,0.029443548713393893,-0.0833590185283047,-0.1970986648029977,0.0099471985375861,0.029838287819411318
BMP4,0.009796260596972457,0.07737170294813889,0.22574150526855738,-0.004935606624480393,0.03562927343807974,-0.05791544535023176,0.07194831384609458,0.17578024024402567,0.004857748627442374,-0.030300478865685272,0.023272041209497357,0.08747422786712417,0.035851958921427986,0.11289882129300303,0.19352157862135302,0.10450221922774425,-0.08699523068779785,0.14518272940358046,0.08785657059723789,0.06383847869663099,0.22777645523115486,0.13903204990717027,,0.19514078797252307,0.0791618336527471,
SCGB3A1,,,0.09605935129747649,,0.08255646842430253,,0.0593891592865991,0.008632629105198322,,,0.027445373678312002,0.042303734979028174,0.035825619061130645,0.045429812267086075,-0.004199755236259696,0.04534326764825461,0.05237989237551732,,-0.005702772028851975,0.01807010692074045,,0.04126121637270074,,0.194024869145184,0.18391086112833216,
IGFBP4,0.257738624137781,0.13884172140633674,0.5474147633869056,-0.0013627952387638613,0.1733079238951438,0.25701374471920296,0.1291044908971982,0.2676455207740227,0.4972755441732408,0.12593842511850137,0.006000131661495218,0.011321164643166322,0.2270181302347912,0.131697751957724,0.48284493068948575,0.27246806362864223,0.31223610205864466,0.3394414779312604,0.23039987757377012,0.14946097539326694,0.5154800246901912,0.42692044859397127,0.056917643436505294,0.5181326929244495,0.4777709106611463,-0.008643268494477205
RSPO4,,-0.016198009845568618,,-0.015742917315454012,,-0.006281722010065136,0.11625293192396066,,,-0.0037627506123096275,0.10558949543332792,,,-0.0133205844231695,,,0.022771659010646084,,,,,0.05923792360289219,,-0.03535466726741181,0.02119323232953614,
LEFTY2,-0.02443150422410228,0.08067669457021084,0.40650860434685165,-0.054242011386003104,0.19065863504407934,0.14044863879194347,0.054124774853145416,0.18856595687675276,0.43004426133452184,0.014791291566764777,0.07036752977023224,0.025555529204468783,-0.02299803103991172,0.13800355342250265,0.10952050007072367,0.022907888059976303,,0.12842018968420274,-0.01387972231116081,-0.021664645610200154,0.3995413759051469,-0.043894647046421424,0.04268976659392793,0.11408829602806789,0.13055421929157282,
PF4,,,0.03770056007226562,-0.04813230469637337,,0.08860527441752317,,,,,,,,,,,,,,-0.045716149275535335,,,,0.05041688392931027,0.10495644871715713,
ANGPTL2,0.01579262941972851,0.13272771355872506,0.36165998486257217,0.044603093822203344,0.026006130523853425,-0.010969992910187026,0.04315656024807501,0.24349263108743952,0.35860852842254615,-0.0034102998655146143,0.005415165398042106,-0.05931909936237329,-0.06387918989953952,-0.16664979139447783,0.11622922440029454,-0.14042832533560604,0.11607925643485077,0.14899512431186307,0.09281735434585232,-0.10914189416292032,0.0016109144955766643,0.042745846604047726,0.10390835866517133,0.26277329776799146,0.22166550248288894,-0.007545718324724881
LRIG2,0.055534310926002486,0.09522056948702286,-0.033149495552149286,0.0010458445979334213,0.06054701998565579,-0.009113181821611258,0.03429869998907192,0.08157822174543633,0.21869284265189534,0.039963882049721115,-0.05277135366746257,0.052080687116152866,0.07552441969267101,-0.06615323382527437,0.07130542480942284,-0.12951040648738818,0.04593757614537721,0.1500745190629888,0.08107083930323318,0.12384538488164736,0.013432401292899904,0.01701458931259396,-0.01491056689418679,-0.005339609491021222,-0.03921485602218458,0.07862235263481747
ICOSLG,-0.06447721072604695,0.0006406604974856921,0.15421377600103592,-0.02816527715488215,0.08206788622818763,0.00553469561918572,0.04485906739869629,0.07251826253302206,0.18030748451449335,0.01463809271348257,0.03322557494308862,-0.024559445010690118,0.07885482139501546,0.05142644002995832,0.06229173563282429,0.17465692739840363,0.1369668549466522,0.12867263876976512,0.12182300920643033,0.01817996875091979,0.035621112401852915,0.062140591129533004,-0.030506382006008043,0.10374010846690693,0.07363945526399786,0.0885253926505098
WIF1,,0.11197340956470235,-0.087409219168938,,-0.03390614396183252,,0.032620340100607374,-0.15206126859666189,-0.16968950643007819,0.01657043859380888,0.024126060222701067,0.17694434301032888,,0.09286583851535367,,,,,,,,-0.03914568637321068,-0.043230222353489854,,-0.055711737639234545,0.04397035855686744
NPPC,0.06917911721694274,0.062141260378399586,-0.061774770428462356,,-0.030161771638943825,-0.0019473737410286827,0.010752282037475934,-0.029417967619129494,-0.02409471518326824,-0.03989010355491219,0.0023250113339361327,-0.03271020047258944,,-0.15145691873107864,-0.015917870523940083,0.03802271510043379,-0.13941005914267904,-0.03500974744304811,0.03660479590125394,0.005130412829460147,0.07311838759573008,0.03751088368468372,0.02227722398720579,,0.13024200513260703,0.17918241874483296
LYZ,-0.10399978729003871,0.004634859397345925,0.1821121694691882,-0.011069031972421681,-0.04889312422515963,0.02958672003281755,0.01258987684702277,0.07091585385155831,0.26326487555813677,0.006334783651867081,0.03374111368556417,-0.03123526710340469,0.06548930456927303,0.08480795344388965,0.1372760455946356,0.12342103179287513,0.08555927006471897,0.0928535963428619,0.16944555567886785,-0.030736921058288732,0.15719232768430935,0.151372748136962,0.017698213965501742,0.1715679923767088,0.06642621543708704,0.06142101257947067
EREG,,,,,-0.03399759313242262,,0.012330793479604647,,,,,-0.05107839857689121,0.02026940785051568,,,,,,0.07622719378132267,0.12347479006197462,,0.03152520525906749,,-0.002856921676134878,0.07992495795221034,
SPTAN1,0.14356596694772103,0.07059245211152,0.12548553326887577,0.043335627234618236,0.09239086914578822,0.03039183903119003,0.04127391651164092,-0.09688323165872464,-0.05454643889432519,0.02534536376216066,0.008178169347774569,0.09668326943676459,0.1369120896545304,0.014038898611625378,0.04018687269849674,-0.05670801394168613,-0.034306087781776275,0.14701850359573992,-0.043659687144342124,-0.03561366939703768,0.020705657662620287,-0.1902990537975468,-0.0445277128821722,-0.02135810658694576,0.28378580201215664,0.09971702088678942
PTH2,,,,,,,,,,,,,,,,,,,,,,0.01777862589200092,,,,
LIPC,0.0786970865810097,0.07631680535378452,0.01759524326447532,-0.007584367619688974,,0.012592841009646258,-0.020990339535397022,0.01776763145784723,0.148606216185966,0.03450562819328877,,-0.000355958216210474,0.011871282889992858,-0.01190090904391909,0.048485699095978434,-0.01593839204176955,1.6171719224272256e-05,0.09958883109963697,,,0.0308777914793901,,,0.01177880564005257,-0.011879659542839049,
COL8A1,-0.06088541260973425,-0.00021187839626428875,0.21946244778857263,-0.016840659885402173,0.16750909771785158,0.0778234924899412,0.026393255918945376,0.07646514320363275,0.10306918842777481,0.01762665758255373,-0.012162800763203419,-0.021506795778812707,-0.20841352737636534,-0.008956278852314892,0.06625104843271061,0.10251841071183966,0.10244425739251613,0.08845633169595572,-0.043465489225524054,0.03405747939772453,0.3156417487889823,0.09900905562008457,0.2195789940673576,0.09408554626789072,-0.19776521839824415,
GSTM2,0.08434803747144307,0.019805544637890568,0.05019526892939777,0.012616191934381177,-0.02790219907789283,-0.02858421271597866,0.051262605387357385,0.04039168018568591,0.10681872404634532,-0.002123667252277947,-0.05578810151558199,-0.03822644845902749,0.01970064846585407,-0.028815799948157382,0.01323613669721754,-0.11942740048934679,-0.005441817418233173,0.13644695835052664,0.02547411486588085,-0.06568562296353142,-0.05445495126217076,-0.05698449400404471,0.053484020936590715,-0.07221723249671196,0.027645986542658794,
IL4,,,,,,,,,,,,,,,,0.030525001356554456,,,,,,,,,,
SPX,-0.06487336626820443,0.09880416848204017,-0.0011527562989921615,0.028314550625352694,,-0.020828162681885195,-0.008056501276244002,-0.05873944449453813,-0.04950414029302296,-0.009504740202530991,0.010582833292825474,0.0127101075569602,,0.12612891336757695,0.07412239984938603,,,0.02499667334631474,0.018484494976527887,-0.027746151030658507,-0.15265746255478801,-0.18232115421026526,-0.008537572096585386,-0.11455726756017753,0.08969257449298822,-0.014890922038239862
MFGE8,0.03433706719194627,-0.04270689864339569,0.4005641328743044,0.003506513227682537,0.05925799560207928,0.1684127611178486,0.09052733173706697,0.11356322706437293,0.17519557160100172,0.0806149597195503,-0.007886283712137886,0.11972384806894946,-0.05323823284107962,0.07275835487487997,0.22854228078817945,0.27353714622340347,0.3150897284918702,0.20671779947959404,0.10980634849436938,0.07464189566973244,0.31261279491222815,0.28667005759799596,0.03879971722445219,0.4553508984498981,0.09976722014558902,0.04415923422752768
TGFA,-0.05565553914180222,-0.09156433381050808,0.044042240349481884,0.0325736466089154,0.12358283743547512,-0.030048047564116068,-0.020413552680395533,0.1460325543531779,0.11132545434674941,-0.010901473562612457,0.00899763651235656,0.015534145770842197,0.024697050933358184,-0.03901570600437646,0.009010261106975953,0.12019324953075573,-0.11535975528344493,-0.04039079120459753,0.07129591579123928,0.049277564093362286,-0.13928275760552855,0.016797367730039835,-0.024830160380239972,-0.05205037288480384,-0.027857018559738347,-0.05300614751085595
SLIT2,0.0022095772540021695,0.08851570449216309,0.14773977556589313,-0.0010946776766882923,0.0179732246683621,0.04441699873594381,0.014884579834138021,-0.0012049649182838827,-0.05384346906545507,-0.002986331414105889,-0.011726337419600826,-0.020728882717121574,0.09473693550081141,0.14761307398440215,0.1520536802040845,0.11221985475539152,0.061739222173475376,0.09167999361477844,0.028635958397849413,0.022621235016803118,0.06582757575917174,-0.004832743278779473,-0.03366975171376567,0.04269583567148664,-0.09551263001497307,0.21477632899658575
PLTP,0.07865445428819579,0.022925300864242004,0.08604315127996176,0.04911777843634188,0.18092376962773202,0.07212511536902338,0.015229746375284712,0.09942765713174051,0.38043983223667555,0.010067824235139763,-0.06443538045452718,-0.05000364197972891,0.11784329929204018,-0.035858451298080754,0.022055712412508175,0.03529898410508332,0.06215560872625717,0.19986655112212434,0.08497878851857919,0.11243613064698689,0.32124942001104145,0.2914361524084258,0.11740079205104954,0.14904804446541167,0.08635851317652665,0.047719671654490925
APOD,-0.28238858605700795,0.08140560975197814,0.012247032740000342,-0.008238546770292537,0.1593344592950413,0.03970866587156399,0.04201611218913131,-0.10372529155207844,0.020844684932247615,-0.0045555877287226385,0.01920376429674139,-0.06494334976156209,0.10822232283793984,0.10206971167783702,-0.017528834008434066,0.03315927504494087,0.07543481808340831,-0.1813257822568457,-0.026418807420576014,-0.05828873812582911,-0.22119065517564251,0.23043704562703102,0.03665523841316987,-0.025271147549984076,0.4027522012426891,-0.08357467405507407
B2M,0.051338362505642554,0.22691571322270634,0.4082556207549533,-0.012292779606846327,0.20034932593198287,0.08469412638414461,0.052123039022062834,0.2056754694437967,0.4836444471374958,-0.033114237523616114,0.02180582625746262,-0.060069469416301015,0.3018532167478586,0.042047870782518704,0.2247158435766295,0.09392628838204047,0.39089904288092114,0.1903610200662652,0.21522260937323304,0.13675154565681788,0.3929182043432234,0.33469708011005284,0.06486327422055739,0.38626687109402524,0.3106827451792033,-0.1403360945733035
OMG,-0.0834988901340694,0.16156290094785,-0.023215241345570507,0.008286831175846802,0.13189404408556557,0.03692250943759728,0.015213582721041582,-0.06031626641542517,-0.20198951275167248,-0.007335957319944773,0.042370825421344745,-0.045308823392861894,0.001284590071175175,0.1739782796404417,-0.07551857275014542,0.0280381854751023,-0.017381690263577203,-0.15223418835027214,-0.03006239080975451,-0.05991544890806654,-0.1759059164895979,-0.15704942035028588,-0.06034859315408968,-0.05899379492584533,0.23861639938420645,-0.021285476667620543
CXCL3,-0.08001100665552811,-0.07588895888714296,-0.07550073753711567,0.03260495738419987,0.014424520033246888,-0.05444843273481957,-0.025626281320709935,,0.04576040205962236,-0.0010284809635733607,-0.0209653742813884,0.03180693254885587,0.2005608228302336,0.016701140350561302,-0.10085849746892898,0.04227571148416003,,,0.05287473116870402,0.13826793013963182,0.02524545880809736,0.11033299030910515,0.13285329574290572,0.028374155128577515,-0.20612487106410204,
CXCL10,0.11050178517272152,0.10603756354236644,0.11645794622050386,0.01900679293091612,,-0.0620387264776691,-0.018360164644663515,0.06808497635360083,0.4437680837578811,-0.017683104037899664,0.014176038109982296,-0.022854985439888505,0.05338417484577227,0.016964606035651326,0.0018239368691727582,-0.050833730701299006,-0.06025960717846532,0.0906005834067422,0.07767223190495934,0.007888585529017188,0.003803315995392804,-0.010557154663125826,,0.19597798467819041,0.08279127058372081,
RSPO3,,,-0.010329151992137653,,0.006192213448266041,0.03471613238299878,0.012947852456501088,-0.00540457189972452,-0.05778404326650469,-0.06547337249595105,-0.002366133007777319,0.080210686270931,,0.05351047182916047,,,,,0.03268541087534735,-0.06877902982637432,,0.03177529535830243,-0.031752557120984855,-0.024183182193334596,0.03524697546700447,0.029293881741280947
CORT,0.037529830316510866,-0.04488213560320588,0.07552708097980368,0.045834840025847846,0.07649037376264699,-0.02925461924367553,-0.00595790467473047,0.012577785345338195,-0.08667797217143251,-0.027316261640816485,0.007929556506387927,0.06940816868845334,,0.06060854831482348,,,,,0.0027080236797128662,-0.0002793053108999933,,-0.05710692114268353,-0.07008939496808747,,,0.08196629475764822
NCAN,-0.043952730805824895,0.18663640350513935,0.24489095308953795,-0.01898326354987588,0.12437095609116434,0.10066142035062114,0.05953577972465828,0.10324754715655717,0.06404478147846751,0.09624114279208755,0.022602791116992618,0.0856466665240842,,-0.15209947861148115,0.02299663502569458,-0.03974602658274114,0.18492047035952727,0.09132461533919692,-0.14069348934044112,-0.11174956664847382,0.1905869910275618,-0.27967230799178006,0.02725846016320121,-0.043548276678904395,0.24893468612757014,-0.04226563823778741
PRG4,,-0.08220734065263652,0.08586320919663853,,0.11790354190043535,-0.010546306778784018,-0.05445965825279149,,0.09838388520034085,0.02147105745818213,,,,0.016278520842962146,,,,,0.03775055292071797,0.02457396597058378,,0.20006261105355,,0.004019828989559031,0.010824336677033336,
ZG16B,,,0.046661380565407015,-0.02605629932269158,,0.03016641192896619,,,0.01954118211444075,-0.007191730954041633,,,0.050765210841138914,,,,,0.07424472460820643,,,,,,0.0848647406948882,0.1435589970944632,
TGM2,0.156194495408487,0.12428331485522358,0.23799199881671645,0.03671091834247846,0.0697312441469021,0.07525051196080244,0.047933410911976566,0.1596011353118751,0.31457787186943387,0.09337031158509966,0.01587730795925652,0.07073116664103628,0.13203358181255326,0.20611581509677893,0.28105621545667553,0.19097056050967776,0.3611730649262744,0.23550577278891718,0.1816922690862532,0.18721228389540542,0.3620934636776215,0.258747749554492,0.0677579256641618,0.28872145311354347,0.27660683618754817,0.011608564133930046
VEGFC,0.010572279184205408,0.041497436769015295,0.1751318471601846,0.027120602510539715,0.018297996416725533,-0.026416591033443675,0.0919450164591237,0.024657168687801677,0.045889640782694203,-0.06212710521510305,0.0052661878707400975,-0.0030132724931579767,0.005464262964444203,0.17902627002979596,0.10549702556439974,0.017799365372937418,0.20704937766974887,0.08667148425934172,0.0697824815386473,0.06294111424021585,0.07751614281846134,0.12885892548914102,,0.16780793629790774,-0.07072178693222878,
WNT6,,0.06647870313064705,0.04873532341123414,0.02894722143802881,-0.0017886572304079277,-0.04559417865180612,0.0336672180024551,0.029698725420648473,0.08194993722621773,-0.029252090150677836,,,-0.0688500622125632,0.033822085061056315,,0.052254789168293625,,-0.005126282016786699,0.055460572763850954,0.05810601685622895,,0.03222262349666383,,0.011624830884927106,0.022427047099966468,
NRG4,,0.0431262191284835,0.001369266601466186,,0.017906202458014043,0.06362364595170987,-0.01793566255845314,-0.007716442671212533,0.04966379768237426,-0.03789270691425638,0.054829280738172864,0.01537757479520394,,0.1179732711496114,,,0.09470745498395775,,,,0.04548921853787461,0.012235784750520251,,-0.08657474391147649,-0.009417924461504202,
PMCH,,,0.1489074252661252,,,-0.017329504768935855,,,,-0.001960969714253335,,,,,,,,,0.1443142798103313,0.047914043644930765,,0.0845145314203113,,0.16439056770910138,0.16827914094439098,
COL9A1,0.11766761779246818,0.04820951690457804,0.36899584598423213,-0.009044368655422392,0.1165055453006454,0.13403948860836468,0.08428294970492207,0.22068948685060888,0.17187857010450522,-0.02319014515990862,0.02556833615957565,0.02479418226778121,,0.10498943343476051,0.1088119825083803,-0.006499494716252907,0.3257706322577808,0.17834038050347645,-0.024817636170021473,-0.06340913505438103,0.09205960958839271,0.09751191897225686,,-0.008131875631280608,-0.026586063727104783,-0.06304180471437613
GDF11,0.05829925077209709,0.1774679152571033,0.10541597033348359,-0.012338602964308406,0.047882909878746854,0.004746448177425584,0.0013369979687395668,0.1182535052633278,0.24757391420727154,0.047429012573902585,0.048299144010730995,0.11130945727059541,0.07423138575889854,-0.023917377900356508,0.0514103660992035,0.0007970917524913514,0.0400165010568109,0.06572230375292899,0.018298638108451122,0.040640218178496945,0.09565183715712493,0.09179290673330448,0.04992740282505422,0.1112238692255895,0.0035810560171228058,0.07844705164389677
RAET1E,,,,,,,,,,,,,,,,,,,,,,,,0.07817807674192664,,
IL24,,,,,,,,,,,,,0.033230255637912466,,,,,,0.06669537745860028,0.019095445390429146,,,,,-0.125448092141819,
SORBS1,-0.09841311262590252,0.011488555054738885,0.1860912320598593,-0.03978105811627719,0.10226367934897707,0.02219195956507146,-0.009418223499167615,-0.026762278460687502,-0.06253530165771547,0.010247094624919547,0.030024670954335753,0.03483695875847149,0.002934418168958728,0.06771159131014248,-0.021589678421115473,0.06595271387257823,-0.061430348741735474,0.028498461874311987,0.01036263983753196,-0.05428186438765144,-0.0331252923113024,0.08998293178706947,-0.010721727922692187,-0.15015260637948968,0.13328126634651474,-0.026254553946140718
DLL1,-0.005688364520434525,0.15474464568708993,0.2151997054260483,0.017487220759065572,0.09395358849473609,0.03717620064529219,0.07096365879281286,0.16195477651577375,0.15997914342502806,0.0111714636088674,0.032347841748917985,-0.011049477557552102,0.08920640004046321,-0.06342676457905398,0.0703376357621019,-0.0036437410615628818,0.05631329052405707,0.10693946269223628,-0.018989452267586276,-0.101084688433279,0.012626336098548534,-0.04789025440873079,0.05540561656051632,0.18008556745374182,0.012139117852782554,0.07074425001254192
TLN1,0.10817577916554548,0.03695589211016709,0.34091088052600915,0.060106318932113705,0.00701547249317785,0.055676975633929766,0.027978327442658348,0.1638098887737072,0.2839484210196255,0.07888414437277712,0.005125981437273426,-0.06323832891038636,0.10947597111461724,-0.07902294417863481,0.16726194187753643,0.09459704952034431,0.13394243651534476,0.12632973832733255,0.062444020369523325,0.12132608698844603,0.17986550031932294,0.2174415685091249,0.04194734015332903,0.21659997700247213,0.04278797587912026,-0.005175126771895302
COL2A1,0.012288151987519312,0.006319453118013714,0.17438941157439913,,,,0.010911922321227103,0.00951333455368727,0.03802037021987118,,,,,-0.037996434091646096,,,,,0.10353689868129656,0.08205008828732473,,-0.002195452917223298,,0.03243768038407122,-0.028344399177533185,
SHH,,,,,,-0.008061967405560696,0.025231270029136794,0.07023136506892325,0.05460643617804538,0.04917063969563815,0.024448583353111984,,,0.020572447368206386,0.0420038604736694,0.05326891654216202,,,0.06332887507949554,0.0049522164170557595,0.15720871225559804,0.05048424886377948,,-0.07872038295257285,-0.05073941135863968,
PON2,0.12094093770437804,0.2446191685403892,0.24842611514639285,-0.0040362515777244415,0.15108439942900587,0.07261841703325542,0.03294381332237273,0.08930685572236009,0.26095034947695556,0.025095774530529972,-0.03053437067434683,-0.05575280199287744,0.335376825713306,-0.07476090990133881,0.1002780061541034,-0.004150147873646305,0.09680777837897199,0.0666900328879388,0.001797527673502644,-0.005401045004860457,0.19843914620221,0.04685625471333101,0.06897152834587755,-0.1412192198687864,-0.07208728121317047,-0.046460405930073626
ICAM5,,0.1127773701366397,0.021556168213389345,0.002140998660620704,0.00398426442714013,-0.027671802094346717,-0.0074519778729493094,-0.059383419567297965,-0.1136652719054501,-0.004949509718312046,0.07819436711877804,0.08218079489160739,-0.02275135154037867,0.08724283460462147,,,,,-0.005536988704814837,-0.05742102815823874,,-0.10692586371589655,-0.044089207280831724,0.017061857445085066,0.1667654525227671,0.17894077000140532
HPX,0.04464692116423333,-0.004088386068471335,0.07077919994284335,,-0.021786676874211045,-0.04344656807756788,-0.015430133346972569,0.07870562972053273,0.10376921274583284,-0.03271546719793257,-0.03945950382270243,,0.06988198420573444,-0.007334568248925988,-0.08357688203479696,0.10698306563837855,0.03939447616391959,0.03160127913300043,0.025980166434272523,0.02198361710910351,0.10817902749942769,-0.027168720115132817,,0.036201160174242755,-0.09073925025638778,
SFRP2,,0.11313953567981581,0.01443046420731854,,,-0.016981230385751583,,0.006423730274636408,0.026430318824871155,0.06059326526060071,-0.023197436640210435,0.007826640575632137,-0.030745971820930258,0.09390355681243474,0.011207372706727283,0.03107188531215529,,0.08332698824874317,0.0642869970154131,0.0797155644447857,-0.07070029579274272,0.20874296088287067,0.09291164956388875,0.1649221960134957,0.18727321071986713,0.09632367283587007
CFC1,,,,,,,,0.018473670684439863,,0.009772521602485401,,0.03969669300215191,,,,,,,,,,,,,0.06434008336825404,
CD70,,,0.09568258781249302,,,-0.05974896853253019,,,,0.00031314333943302844,,,0.11518345964804676,,,,0.03036336883523621,,0.140965125103679,0.13596411774011904,,0.04194358568725902,,-0.03336408822771119,-0.1489856633236458,
HP,-0.017007734121918947,0.2153241177760132,0.04192870906678856,,0.10024976438923859,0.029711967967119512,0.021197377214723822,,0.2186750869630178,0.03228366092932344,-0.031039450428086608,0.0346129955104757,,0.012962327327438452,-0.08284988425079719,-0.10599384319711422,0.12116580614422841,0.15084617333112227,0.17248078706877043,0.0433791325835129,0.13778237350949635,0.07786100604920188,,-0.03254213280728664,0.014978275647551588,
CXCL2,0.01567733142254971,0.03824987873837954,0.029889869882227926,0.035565767552917536,0.001126949251213286,-0.05186894713973297,0.007462990525186379,0.09173801953875975,0.1651673910215499,0.052551610065838805,0.020909855977650226,0.0291412484545154,0.1953428635611759,0.04895989977515159,-0.024142124399026396,-0.09511604781956483,-0.053984293563031846,,0.08269036221151928,0.1788843598156728,0.017874427580541082,0.10787985082470557,-0.004328455640834994,0.018334332707697295,-0.08057963803814572,-0.02715505590989738
NPPB,,,-0.0536799053356077,,-0.09668173189817551,-0.16395032044902816,,,,-0.011604476488679202,,,,0.011885010980016151,,,,,0.0022865857302084365,0.05240694532946557,,-0.025389617507416,,-0.0801787223167667,,
CCK,0.04038112554563141,0.1560724419717502,0.03188177783826491,-0.029223267171251534,0.14018246746937404,-0.06473684444502904,0.06358507827187666,-0.1900123554705569,-0.3033681903656768,-0.06517418258797139,0.025438325272535447,0.12172721730926397,,0.23417501081130118,0.08292794394821325,,,-0.04203971235529431,-0.0767430220047497,-0.10930611289344123,0.015332597435951388,-0.14912274283025542,-0.015153925468238499,0.05959894315598469,0.3609780751157367,0.22052435996782366
SEMA6A,0.010283165165614255,0.0702300183874615,-0.06578741224122076,0.010561687401062747,0.15166999699867592,0.07416851150946009,-0.005826050789173676,0.14267327354421527,0.16128577068366684,0.06368154182562845,0.02521510285032463,-0.018931839119518474,0.02094566264866637,-0.13531735417566657,-0.1377102911728126,0.004676896829539376,0.1221241678900078,0.010075777026658498,-0.06602073627551049,-0.008273077583119947,-0.026328552848479923,-0.06465753262723933,0.09870708608826796,-0.16922078798122192,-0.07147752543741046,-0.0956320202445309
IRAK4,0.006918380248136979,-0.0007025282132804621,0.1588981330234192,0.03737380141653307,0.0781177151710733,0.02463754438423121,-0.014531498094190244,0.10513313356554978,0.23876447463028397,0.025897533652709234,-0.025685807693009405,0.013171230470090757,0.10117664611479511,0.014751049864234866,0.052019779289493605,-0.05467709746746421,0.04514576806451546,0.1692182478441532,0.03804177795231918,0.06653099993579938,0.15651449889772415,0.06328136373812054,-0.011929718758345557,0.1329763411520881,-0.07576919080828894,-0.050243868684480594
GSTP1,0.137672111852988,0.16316934743239309,0.10485425019367105,0.0008485150509128261,0.052336285967577716,-0.0136795973556042,-0.02168306222971551,0.1741482626948145,0.27089649687461526,-0.03454422775097318,0.004458579476226654,-0.07508246626258867,-0.036353440689227266,-0.04103602736900167,-0.11169601250190514,-0.04970225523437918,0.054665530050421136,-0.07371348595620529,0.1151814968907078,0.009487969199950017,-0.05825634129946875,-0.031655725673101515,0.029624120366171274,-0.1218685265948541,-0.14758246653736384,-0.009282571470642776
VCAM1,-0.005934448257218271,0.038653569821813484,0.11204827448313996,0.0024279400927453873,0.03264660530644273,-0.037622100139201815,0.02223943764745185,0.07889803813366641,0.4197987561218254,-0.003161339028264926,-0.018010850521909035,-0.0021239136902293887,-0.04763786256230455,-0.001960365261594802,0.1664080688872567,-0.004689738301808552,0.06974870663885376,0.09110902017788101,0.07439878027167582,0.09666463627236749,0.03483626583693076,0.06712616116039062,0.18557406242995736,0.10716153142694956,-0.14036426934093965,0.02717704177145968
NXPH3,0.03472144373879359,-0.10012966257952823,0.09244458274674135,-0.01827273427933035,0.06218855466295888,-0.045775484844117795,-0.014758065407026757,0.1153561227309393,0.13236554560066643,-0.026016072874925467,-0.0004358936091451262,0.08398569210338795,0.085856576220279,0.04136283161197389,0.014494115907103235,0.0984235295375721,0.04249192248862264,0.09770383959786631,0.02097054811514302,-0.024889623642943535,0.04792100837799011,0.003862120961351627,-0.027431844837323926,-0.017328626411890435,0.05749005583555008,0.011134837674089418
MTMR4,0.07890629616718288,0.11418309997928308,0.08649452848813774,0.03490928198292511,-0.01096186894510033,-0.0006688294226486104,0.006318270662879066,-0.031180687017016484,0.04619317543841148,0.030977667472654277,-0.053895556000452934,0.01507353040745582,0.12545048841373788,0.03156257197552729,0.059751013117354534,-0.03984891209399524,-0.028993170097122177,0.012486765528715402,-1.8370680691912824e-05,0.018110425585586183,0.08944946158657299,-0.008496224728744797,-0.017780217128973944,0.0031346996093865194,0.05386454872742266,0.09064841945463926
LAMC2,,-0.009197775620400236,0.07768947254578097,,,-0.0787552114816276,,0.11738054517555845,,0.017054687825143335,,,0.1062548570763662,,,,0.011411396157340749,,0.08890560350773226,-0.019290369754044797,0.07010420849638234,-0.008645404123035981,,0.007896542114726762,-0.06803173916142792,
IL10,-0.01069889082407493,-0.01513049442705885,0.03424571907516002,0.01474296236314415,0.07951132388434355,0.03331466249155922,0.006387918167595504,,0.08431835086702279,0.06510261223166526,,0.04243207616566059,0.10794898396900969,0.04691248519347928,-0.04875983934055486,0.008029020628236334,0.06378200556345723,0.09757437449848588,0.01749658510121356,0.022298675955875348,0.06646564911398122,0.04181315968093883,,0.06688702706059999,0.04716068456293048,
SEMA4D,-0.023993489781583582,0.16733099192955242,0.17689617525417972,-0.026945351426045202,0.10619574064109294,0.08721369765155863,0.006684801217333531,-0.05068462961749654,-0.18925018969767596,-0.02112934168609064,-0.017070533340397532,0.000467278919078226,0.07854496978169792,0.06864186393987542,-0.013270129528915129,0.0871304786957012,0.06785952376323885,-0.15531888248233636,-0.038532976256840476,-0.12473763237540765,-0.24022956981866797,-0.14715425173005872,-0.04907736035310437,0.02106752681045962,0.09849394700929393,-0.043694515774710216
TRH,0.027872331511823296,0.11506700631547655,0.019310487876620305,,0.007485742843809981,-0.02499730507481915,-0.009168011852375124,0.11683144636401173,0.12126283705328895,0.03259363815361153,,-0.007470565962644647,,0.0688496840117031,-0.02044413190937308,-0.09536024297950113,,,-0.012477098295049406,-0.06844269453695141,0.2765695765044819,0.008330073576374273,0.04392702582841465,0.01592526097554257,0.029130448837039694,
SEMA6D,0.08641920921141177,0.12237901576583127,0.06144710719293316,0.08393942425997963,0.07032174326853362,0.021233645887236953,0.05629562249130544,0.12602010821954973,0.17459100771327773,0.02418014255413895,0.009680089164443234,0.0899521078429574,0.000726549287704736,-0.0652340203188834,0.05379498962932602,0.03298524949500946,-0.07574040644771446,0.039778515002832866,-0.0888386745221573,-0.031302050918331714,0.05486178245393227,-0.153022103065703,0.07265077784018872,-0.1845331498171461,-0.05680004758992585,0.0716121983207739
CEL,,,,,-0.06101060453060497,,0.009567379182441773,,,,,,,,,0.012838246210182494,0.056306475827295456,0.05206392633039827,0.06793666930804865,-0.062210533051988974,0.08314787928686211,-0.020503182975969203,,0.04901881813563533,-0.03709466965385703,
PDCD1LG2,0.04867790709771205,0.04530437506791562,0.06634260410661054,-0.011102651708070467,0.06964336529718936,0.0019560073982655968,-0.06201365303028911,0.06837919714826816,0.19247050791014167,-0.028175344881724945,0.017827715178033245,0.01807204713900193,0.0348283416089742,-0.07351521235530187,0.07421377649921697,0.006737350306894826,-0.12552253995879759,0.07091771536987981,0.07478726462093903,0.08718149750746504,0.08197130088337026,-0.03898465211064168,,0.09873596262222496,-0.02501106752463565,
SPINT1,0.011697762320389899,-0.10459160022827538,0.04459751563544075,0.07101697092860931,0.11539977996411495,-0.04349752553465052,-0.03376830207333593,0.018368534397591316,0.15343868820078557,-0.005805264195187337,0.03432126720681619,-0.021813356438095576,0.050050350496214695,-0.001782959676774828,0.07057601637192437,0.1183917118429439,0.021617530578427156,0.10420465943631492,0.05869380393064414,-0.03619043889064237,0.0585522444250089,0.04026794624870053,,0.07343281021003827,0.04858110000982352,
CTHRC1,0.10102357409948702,0.037283623408868954,0.5124259482560898,0.007471459698489523,0.05643128712492054,0.150479118098549,0.07582004844529877,0.2505323097366223,0.3493429562298512,0.07192236001809552,-0.045046968097405424,-0.0266814525603565,-0.09934196466133742,0.08139634938559287,0.2104946147776614,0.041806893270954514,0.30088818145387186,0.2909600488669108,0.15188768741712408,0.18708617058561278,0.2997596652012439,0.25662591810213214,,0.39446931999402485,0.33616194366461444,0.12584819863768987
PODXL,0.1815871082215381,0.19001121406213448,0.5232646683266642,0.01562669381582605,0.11934599306351008,0.1587643397659136,0.011284612712003629,0.21685329025480476,0.46914029740623897,0.13442390447533295,-0.016519515965481717,0.1738722588673654,0.281782735485735,0.1428671758612173,0.3236413596435082,0.17310191458910418,0.28951493307293535,0.2842280249035439,0.08914685569644118,0.08166911850247179,0.4225112153877599,0.1290483252234638,-0.08380954442145218,0.3861732401998609,0.27955693858690506,0.0893258211283564
JAM3,-0.01271568708263451,0.09446173703862797,0.17492826549147852,-0.04502384574755067,0.045441286135717934,0.014129264992399979,0.07205950707707372,0.17064679227915508,0.2108253546306844,0.040498169931699496,-0.017670870297874543,-0.02059717615844919,0.15021525681995326,-0.08478655220726707,-0.10468137393424107,0.0952195511584036,-0.01986813865461531,-0.07418358170012387,0.13204605936444028,0.1782058278213478,-0.048598017946962876,0.1820512933445933,-0.027881498914759818,0.0720634140207031,0.06377087220111394,-0.10467273080293128
TGFB2,-0.056758861000806994,0.08328733931714052,0.07953260017087485,0.06167271792935748,0.1186162788701466,-0.1094972489121939,0.0660225794871649,0.014497525264272577,0.4621373793199032,-0.013182622262856054,-0.004869212803412286,0.0347991492512854,0.11614006390341763,0.005699207826867643,0.10114983585002753,-0.01796578958897144,-0.08753100260950641,0.06560259429931849,-0.00768961701453278,-0.05220872012397549,0.18898634997447858,-0.10545370821986651,0.020807596936178858,-0.16109432514068134,-0.09445646466674833,0.033466528163131753
COL18A1,0.1195566955889179,0.2021414445044284,0.599764078757978,0.06925899270766257,0.21657339061257222,0.2946837647316666,0.16629312163179272,0.26294281176710244,0.4967361523807981,0.09549721103858211,0.02762762835912174,-0.039940609890847745,0.310505217649442,0.30539929969063256,0.5233517472274185,0.34789408712540537,0.4691876445254848,0.3725068810281663,0.36222773267387304,0.27784514232846086,0.44278700963819473,0.4698090245946347,0.15336352296779687,0.5818729592115027,0.561607629686678,0.06048266343594104
NODAL,0.09463405242404889,,0.23717220510896656,-0.02394380381961501,,0.029132808703406288,0.11022994878167225,0.25006569014569996,0.35579292415592617,,,,,0.1361983187600849,0.335665036351394,0.36140495967814334,0.31235706177627304,0.2956023230140886,0.08923640367718726,0.06311673908569986,0.22432736537771547,-0.011642243591129937,,0.11673954938751442,0.19349443079478176,
INHBB,0.03772784578166855,-0.0035961513149797716,-0.034088115887947044,0.05323076052819027,0.08394769002193478,0.016353444791424365,0.022960955876498598,0.015394383385325311,0.1879206597894801,-0.013399349746757184,0.015178651471639775,0.004599390614061424,0.28946423258302173,-0.12728813966771646,-0.055721267132812134,0.01726251759355901,0.11994388274278799,0.11489508229695493,0.0797816919537378,0.16727522796644598,0.022647699452940956,0.1722464447204596,0.045444549252800386,-0.18516369438566443,0.027840123932630037,0.09219808666360156
LCN1,,,0.1603385815806656,,,,,,0.05080913154965059,,,,,,0.03458467770349624,,,,0.04189250837274527,-0.010597550228399748,,,,0.1603555938536846,0.06982616939824543,
ARF4,0.14975169929255455,0.020237022836538724,0.1664035247120696,0.07156741337255144,-0.07698789363168798,-0.05112140616956443,-0.03907175036189394,0.14446237501380924,0.23154313725697237,0.046675937296171546,0.006910865245815538,0.010683922907512203,0.2008303332343461,-0.05315709614138908,0.20614841621856458,0.06860332745232597,0.02356115479371099,0.10891116189892897,0.015218282053365178,-0.007580287044744673,0.10844086181208507,0.0026733631261355493,-0.02913902289116903,0.14688254384246416,-0.09632687678723104,0.005837036880641735
CXCL14,-0.1342655181183529,0.047195863089813474,0.01909660814829367,0.00868786827793904,-0.004934986433102759,-0.03870477745687561,0.0032752181755218066,-0.10180977383024853,-0.004990999432614995,-0.03024893453261229,0.04693065766341573,0.029062827512960344,-0.0581356702533509,0.14897924319843692,-0.015468549090719094,-0.187353660006185,0.11179963280741463,0.06592629277857434,0.035357078220816275,0.08856863009048278,0.3128544002265061,0.03748426660608679,-0.01020614084822935,-0.2531203065086565,-0.25294556609316393,0.06199100456101216
LIF,0.03878827430429517,-0.03885509996337729,0.10289334840560717,0.005302464209242199,-0.12740618766833448,-0.054105135905351015,-0.022272929638108677,0.03311534793312526,0.20476478396159253,0.02182376889877002,0.02568548080180544,0.012952142693999526,0.15763508788167924,0.017722220682111562,0.1523387709500685,0.10086906754939035,-0.016510704116851193,0.033283429978176404,0.02354487118142297,0.0031659148567507937,0.1557851457604058,0.13923276100496979,0.047810164699984434,-0.09266618831013827,-0.26097479955990066,
IL17B,,0.09757356865009388,,,-0.06348691359461422,,,,0.10156220332834973,,,,0.07436114155218052,,0.17052263732971934,0.15536493317515834,0.11595861192775068,,0.042963615868490845,0.017067504104234542,,0.07221706712682883,,0.14927965382860858,0.08800145671415506,
MMP1,,,0.06514025527361035,,-0.09991007481974903,,0.02891195315246972,,,,,,-0.2072103297884945,,0.2985207111724435,0.15193624702788036,,,0.049146016761470616,0.04785907412207908,,0.06995703543343956,,0.4245798665769281,-0.07975592091460361,
MATN1,,-0.0025872298689008557,0.0568906858281035,,-0.05488845742302587,,,0.0807086037374469,0.025925109348325658,0.0880965601526147,,,0.018567603262233886,-0.00222688531629462,,,0.018481917436143802,,0.025698218999412152,0.02195268256794288,-0.03727217011386327,-0.06106903544955921,,-0.06788818058359876,0.03971016356875128,
ADAM28,-0.12580997994013893,-0.006194660522302065,0.09637080555384225,0.022385039000757768,0.05182361401353549,0.0416715560671257,0.023434573982345445,0.036468638948503336,0.1819628773051643,-0.011001841659819319,-0.014460441224491924,-0.06905796739542752,0.059394941562095994,0.0040242320004179565,-0.0841251094764866,0.061857093793620144,0.11229702093971748,0.17761327237590538,0.023423545917560407,0.04602863625803022,-0.031280384361132854,-0.02152625853368044,-0.019314988338358863,0.13978610161312424,0.10497357452278568,-0.006778548039258989
TCN2,-0.004401759046743421,0.05931301856790424,0.5020718675060325,0.012342033218447287,0.12873400080999411,0.13837795459165528,0.10322207478642442,0.17242781926726244,0.4621954938627555,0.06546658022155673,0.01190386366664385,-0.011974562512156277,-0.03310307730911264,0.21539571702060306,0.21582653384051645,0.06001657014959134,0.2738214950702112,0.15804727260332557,0.17532347121729722,0.12993875750471764,0.4193038575586042,0.19449333802270322,0.0074185421172759,0.12179437694185492,0.11050433333957455,-0.07968790545155102
THPO,,,0.01209075229902955,,,-0.06590354212123167,,-0.0023130668421786622,0.1027856065996287,0.05041025589441172,0.017727013200163025,-0.05943160383082844,,-0.02887145424882513,,0.040128089209861356,0.005757096736675232,-0.011266638044296168,,,,-0.02590157601003443,,-0.05477639036156146,-0.004507907449916116,
CUBN,0.1522554695109091,0.0018724287354403553,0.2952964505174801,-0.04469693240543573,0.007745882504560547,0.024943903518795715,0.030731896202974028,0.15966554335146285,0.24556025777339133,0.01906033957372352,-0.028498152667856852,-0.01667231056983148,0.221490012338834,0.16884000403606475,0.18029498914128408,-0.015438882935283404,0.10340327169457847,0.2714833505854304,0.0917091875310472,-0.019688509421600903,0.11811221857214933,0.15266798272191967,-0.01825136154688984,0.08575832190513762,-0.00657901469193615,
TIMP3,0.09966230621007603,0.09122629180810846,-0.060849855826464024,-0.009799326570925335,0.12228737171970222,-0.016658049212157102,0.10927274820874598,0.07168887142574044,0.14996830378396298,0.036768782063339514,0.01873100083829215,0.09571204686385139,-0.12987411452577444,0.16297222193695174,0.18811416060920272,0.2022615617989928,0.05685225139868143,-0.12160683831959891,0.13699877440516917,0.15325449823071302,0.3221694947544478,0.32289233595846717,0.02035798314302195,0.3827591255925069,0.3718201371785501,0.024949309077670227
PIGF,0.07060044137053534,0.056956154499628424,0.0742308428929704,0.0016698647274683504,0.03879471968189978,-0.01306889366388926,-0.009453255565494829,0.09215869182595805,0.19109354676259183,0.017661865983274638,0.020841978968926544,0.07871476619069594,0.1499379273736945,-0.012627655612259175,0.020164212126509748,0.03181159787061183,0.09963726389171748,0.02663483047387271,0.03835642239249889,-0.02895670383677744,0.07601154792460779,-0.02825277177743978,0.051878882043290386,-0.05084428207807329,-0.1042265189238932,0.05980378007846188
CRH,,,0.0943915810628736,0.04015631349091254,,-0.030739083154649006,0.05472223842740773,0.05864589551192729,-0.02679193927892626,-0.021619235050390335,0.003717221273798343,0.03999542849857992,,0.052773858352735806,,,,,0.00433031488867181,0.02132294736980395,0.04587731074923879,-0.04880167552965903,0.06484887671347489,-0.01243638930571523,0.08028484658511789,0.01559240481877311
BDNF,,0.07902092652714791,0.0696921122570925,-0.007962924209836368,0.029692508748158132,-0.027832386565775094,-0.04794749022043935,0.008620386872032457,-0.17551807682613038,0.04258899495081574,0.08673549330858717,-0.006513984948758993,-0.07208346219049261,0.0736334536143796,-0.04922077083917858,-0.037441236433896685,,,0.011357460613379503,0.05109693319955115,0.18517823184017926,0.08989309278347193,0.07745017226077595,-0.09877709030468666,-0.10264529152883053,0.23223406124642676
CCL5,-0.10096788484527548,-0.01366217212926033,0.25532111760855236,-0.0056416741151862765,,0.0464959691049434,0.0486201473947641,0.06926009963636148,0.19899902394919225,0.04398081370717604,0.0562008432297355,-0.021964553804849348,0.18398540391844745,0.047323621839601246,0.06122335804281855,0.0805077032584808,0.056607761872515476,0.09387517509230647,0.08597844217483762,0.04813767933945708,0.020641676015589656,0.09249452713026791,-0.06419519234613122,0.30219486474232443,0.20592774274462947,
GAD1,0.0789204049784804,0.09032424053642617,0.09379599142663095,0.09620314142953122,0.04602888191891284,-0.0446450264051306,0.02056619833066612,-0.12153315033094639,-0.15566253767710028,-0.006677770171295562,0.05537243864788582,0.12648582374036915,-0.03498115188248231,0.1909628606375889,0.05226041752167991,-0.09422306438194854,0.03900458679730963,0.13593523531954685,-0.012166360944766492,0.0008370140028579005,0.036408463896352924,-0.02021847702413695,-0.008245214173052262,-0.01771980679359157,0.22387031618256548,0.12461937666493926
COL14A1,0.03233261446440266,0.12729204287674165,0.18147107013365324,0.007525826145324791,0.11074793551408853,-0.004405597649500475,0.033997279683106896,0.01806111969097666,0.14304844992080332,-0.018980556609478137,0.013742781126917174,0.021951090430639694,-0.013094921008256918,0.004749485494438776,0.16092981173454132,0.19320291079034183,0.03032156464400007,0.061507761257238294,0.09171014043215574,0.0837969688109661,0.15367808940778227,0.19981736394748276,,0.19804364812488823,-0.027786196460775514,
HLA-A,0.21136334923904995,0.19497604775812222,0.13151219457016627,-0.017743955111770838,-0.002282445438107952,-0.035117498531793155,0.02265180350799885,0.21842323034704791,0.4603944464395157,0.0359368949136276,0.027152414446007765,-0.04001753187345057,-0.16443995154217533,-0.06093349969566847,0.08047936073466858,0.10587967763643787,0.289729349930576,0.2799167307547975,0.1824208953825838,0.2156249288934294,0.38878755305927215,0.33416348825699727,0.0010606286584359513,0.34267010012661336,0.08535879929312216,-0.11334107172371544
CD5L,-0.06248795115477972,,-0.00898395755526316,0.06881787108322662,,,,,,,,0.004609222648306088,,,,,,0.02914134850683479,,,,,,,,
FGF18,,,-0.05203396456352151,,0.07015973153601635,-0.038034686219667276,0.05648497253100121,-0.00888965202773241,,0.0334440070096946,,,-0.013859467634512911,,,,,,0.04432576337681628,0.027356943126900193,,-0.003876805668348544,,-0.025019806192727517,-0.08338526032898373,
ADM,0.17049108011725614,-0.2294756538760086,-0.27513356747653306,-0.0294206843224731,-0.1707239634338568,-0.06206496002555538,-0.0399502766139545,0.13825512738505963,0.34633979230312123,-0.011144612817171632,-0.03307792413255127,0.08051987409241179,-0.1984597930697261,-0.22796223880550764,0.14908569487419435,0.009234995535501531,-0.0403230274149584,0.15687085608002113,0.08913144258327993,0.08616020880744649,0.3522719399874843,0.10452348078496218,0.09553871650074845,-0.09502524931033755,-0.3874709261742381,0.06578140051738302
CCL15,,,0.2647051848521621,,,,,,,,0.025370563912521626,,,,0.09269638881114924,,,,,,,,,0.09915304690667445,,
GNAI2,0.03686418311254164,0.18678078093152095,0.39801428660629484,0.0701085826322761,0.04561675488578063,0.07141404793231627,0.08106267357957678,0.18365155564371158,0.38503748356326356,0.07280808442060022,-0.018144971126644375,-0.03737820762261546,-0.057610492251205805,0.020808419086043507,0.13206272610737288,0.01782973566182186,0.03228140468125483,0.17397712589204647,0.014709759237347506,0.016782707051430326,0.031563506591847076,0.21359944988239124,0.008421080512903382,0.25489594564812423,0.05507691609145924,-0.07692162450341979
HDC,,,,,,,,,0.17573740589319373,,-0.03203098230693384,,,,,,0.085134902266593,,,,,,,-0.02984863470276868,0.017489438495979188,
COL11A1,-0.00027733012584420523,,0.12034349100543734,0.03333862622588082,-0.08333820155615437,0.00656187979357403,-0.019174938080267333,0.25255093049770755,-0.05385319474980915,-0.0044566602852574,0.020438767861228953,0.06622529531373235,-0.11512002561815401,0.0919372678244568,0.05535524072555201,-0.05889479557230498,,0.02077895585978245,0.06602888263088107,0.09389298749436406,-0.029039898591814342,0.2658657120726674,,0.05559864839485909,-0.06672833002386698,0.011447903702438072
NUCB2,-0.03666377413778302,0.007754755484134139,-0.03692454050936096,0.03519875011517566,0.019813104245693602,0.04194456009147072,0.058951050198255216,0.050167360919582626,0.16847919092878852,0.04071965470330032,-0.029248225390897425,0.015416852006419696,0.08613024298264688,0.04988664865197558,0.022021217664947367,0.06121590035158131,0.02981411215231825,0.02995170008795887,0.021687339176206924,0.01581967821424632,-0.018659083630561003,0.049609674506006875,-0.03450236947025086,0.10544310242371799,-0.010254322030698908,0.09662733626241428
FGF16,,,,,,,,,,,,,,,,,,,,,,,,,-0.013026956431029343,
CXCL1,,-0.012263973161136697,0.07314705491433764,0.03971881810836805,0.021017630836706585,0.011212552703878484,-0.005079541858616212,,0.11286945284721192,0.036389286249878305,-0.037375919024808725,0.10356558347261258,0.234901024631623,0.11941337370555066,0.14672956296109718,0.01606535749039349,0.2445908437763371,,0.1065642747715394,0.11413699683249272,0.12912163099503848,0.15647542632152178,0.07782749727634164,0.12408609175673069,-0.006337846547184676,-0.06398992630601538
VCAN,0.1013169691218249,0.12417947253542175,-0.060453312381240874,0.06976000655800552,0.14751382142894617,0.03180724912963753,0.004366291375622616,0.24291226643413216,0.24225465444587077,0.07501732453992556,0.012623337887110855,-0.09024603285783171,0.21062824592634916,-0.1803487681128568,-0.015045809133126945,-0.04415588125732734,-0.06562755587724772,-0.049886879668066125,-0.17084747289620505,-0.1442070807472617,-0.16857045604835275,0.11160966701141252,-0.00018330555687055063,0.11275551666535269,-0.09091155304913733,-0.09495037325024036
MMP7,,-0.007816296531578717,0.1401562926884534,,,-0.006698206700266018,,0.03593580951478235,0.00731627239699016,-0.016824188435221488,0.03572161752589855,0.024963897160536368,-0.003142053041449521,0.0769346537461991,0.10284521625860843,-0.06172376175188692,,,0.15012238737762137,0.1267312843235561,,0.06727009782387272,,0.3281354227109135,-0.26711084715473843,
PTPN6,-0.0025298632247692733,0.06295291828185431,0.1673993923011393,0.005326253970773969,0.09494367704830735,-0.003470677102895665,0.025303783958981328,0.07042874775037392,0.28600840598337585,-0.012839364015793199,-0.00039113876499908146,0.019766982301902138,0.10237091552680533,0.06458539379331464,0.08175203430496825,-0.007387607159638311,0.21598361122753898,0.2803379524565773,0.1019794669860794,0.11651548053615178,0.09441562557637248,0.10170278442828543,-0.010920525277744371,0.13304065911206606,0.04427647862298191,0.03613328022333024
PTGS2,0.05752573734295198,0.05274965990222534,-0.005937329708282767,0.026161416711622067,-0.1041414317035645,-0.05454503703782338,-0.041725186903811745,0.025827504357914994,-0.16965977789991338,-0.020553428939124943,-0.018486392040413423,0.03259079464880305,-0.07498529629523851,0.01083396723682532,0.15859877218530538,0.16882191068833108,-0.03450294786390577,-0.03044941814251495,0.09263465278465595,0.1667886141904341,0.068802602657239,0.06494675872584504,0.09977894620915033,-0.09481525239677718,-0.13007019613228488,0.1261620574834953
XCL1,0.05176146384045439,,0.05591650308161457,,,0.017291704598392056,0.06536941352901789,,,-0.010093553183129773,,-0.0251270781085666,0.003274562847883789,,,,,,,,,,,,0.08592807725672748,
CD58,-0.016127395570658412,0.08718754258042977,0.16103948477093064,0.040435621370744884,0.06602664586667867,0.002889298224034471,0.021997507330445896,0.14001088939516046,0.3332057261054512,0.04863897320112609,0.0704833972142967,0.058586566733865496,0.211691074789718,-0.004420794833740473,-0.09956041680174892,0.01546826735777372,-0.03662736305505285,0.11133811224862863,0.011318458849399016,0.05242440165531915,0.08585506737244218,0.08997872229955094,-0.01988671030508382,0.0604472903073093,-0.013309509775670685,0.03198987924999224
TNFSF14,-0.04117625911140681,0.004136046714681221,0.11078725595393792,0.044300655597217645,0.04623813406289285,-0.0013554840142911146,-0.05096037183362196,,0.12572736329743145,0.07615972791345425,-0.028292706598808524,-0.06115696067419713,,,0.005775304515031054,0.007603746189075345,,0.013872737764562281,-0.00989846449289212,-0.00367398431976306,0.03623195526385941,0.012373567888725664,-0.05394838138168221,-0.01048254578715373,-0.00894696101333053,0.0021041000238544785
CNTN4,,0.05152263861433375,0.09344388417897241,-0.026792123207472367,-0.0190936673028103,-0.038710298129414976,0.031118624532431808,-0.040675685891321034,-0.07174174021821798,0.003535516617106652,0.060020000799478744,0.10120474243730383,,0.06448405300630486,0.06069006735725543,,,0.14618647918734612,-0.001754566721277838,-0.016610951322024444,-0.036697149757197685,-0.019883977208016868,-0.01198483343616903,0.13755370596829006,0.1786650217212207,0.20176973854609476
NTF4,,,,,,0.03235988575397686,,,,,,,,,,,,,,,,,,,,
INSL3,,,0.04700363780774481,,,0.05215749202473625,,,,-0.005056302964156276,,,,,,,,,0.0278154364474427,-0.06036086536505374,,0.002105921086780859,,0.09982733839559989,,
BTLA,,,,,,-0.01376169468134716,-0.012638984708996331,,,,-0.033668218020802776,,,,,,,0.034711487480011995,,,,,,0.05906932552697083,,
MFNG,-0.01247595082994052,0.05431039774893936,0.3218342488309217,0.07739254170626265,0.21168347140853086,0.05942478781343138,0.05409613048525638,0.2386641056365366,0.2770592439481705,0.05429797246605676,0.0033804473056126484,0.026158592193523945,0.09721342924280303,0.09731598265261701,0.10582706362484315,0.10795036392894299,0.2691124612399904,0.06242312719286625,0.10022822331457351,0.057446874847281046,0.10786890387263325,0.04265763594721849,0.1542830605163652,0.1448798793983677,0.11711878338761832,-0.016902099086750333
ICAM1,0.006075635683197969,-0.09485604356357834,-0.04596217433383675,0.002286871713450128,-0.11610409695856917,-0.03250740647343249,0.02530399441605637,0.06128452740211722,0.3548521338627611,0.06068361774652294,0.023159615906317835,0.014181444936999564,0.017774134106658544,0.04991918990056461,-0.020811203660667063,-0.068180674921574,0.12805632565867786,0.08675858400965801,0.10771870378392043,0.15954927381938772,0.10825330083865624,0.07790851149943587,-0.0067471823581642335,-0.07363844760714745,-0.14441582224405725,0.014694620336636544
PROS1,0.06478676207745687,-0.004223518740314222,0.21513561129331538,0.05656900448462779,0.008307344011354127,-0.026585339612894766,-0.0062626723785557436,0.12867247565840922,0.41912385481930087,0.029082209635096466,0.006472618595859054,0.016037788775810358,0.13281501899176756,0.04320740535861244,0.07992957287981652,0.07072841299487646,-0.014261612846944553,0.1546358484475087,0.017266354337638408,0.11036871277297342,0.22047256336413984,0.195782741834666,0.013878160809689625,-0.019944426782420012,-0.17830782210251944,0.03066669525323727
CLCF1,0.025386590170226007,0.08588413928511988,0.1628946809894695,0.04372024496311563,-0.04504549303054524,-0.09435191007421519,-0.019210349776770646,0.06551888150706411,0.11408965175548097,0.043140616191909315,-0.022898369364242933,-0.06302261971500453,0.08376092233552196,0.024017443907393337,-0.05196673585424525,0.11046146721536243,0.04599353530372245,0.08089388626480701,0.04785414255214973,0.05923412428749273,0.11188127919520217,0.07872876429393452,0.03679236181071645,-0.11083590719851245,-0.22123301915307367,
PSAP,-0.24006721587691834,0.09012827126215825,0.15509185025958938,-0.012306995352091813,0.12216138182022673,-0.07683118961901164,0.035331795670116906,-0.19789772051147625,-0.20746735764946508,-0.005576359689245958,0.02637094894906075,0.012676463216926184,-0.03286477723185331,0.2602896233556248,-0.11262886867221424,0.04997049956253551,0.02991813379616131,0.028224299804430687,0.1687160997515313,0.1998095798272551,0.04583962502945024,0.22015561856057897,0.07138849946445384,0.0782211309798195,0.15234846827265286,-0.09344715867060506
EFEMP1,-0.14620035840290554,-0.10784303538258806,0.15146943942648788,0.026236418981897564,-0.025474682341437457,-0.009408579032893074,0.021129940488960372,0.1083838537964261,0.2961437178339668,0.015511579579425451,0.02246855386765042,-0.053587819384007515,0.034062648886774315,0.034986646878143714,0.09350791179022297,0.009407891647722884,0.06258959371286038,0.12027620527702337,-0.02816958845649898,0.04370814895696521,0.023845719979845855,0.10249994960145738,0.10912537835971177,0.04286494269534763,-0.2936871074501679,-0.19266579325582156
C1QTNF1,0.1221915061944538,-0.03369422914476422,0.04893624572201598,0.07239158726333844,0.07206795954943095,0.08219781337971607,0.0694926639798411,0.08264941785163078,0.30638806150702225,0.03542717750325164,0.018793560986062836,0.06280352179911121,-0.10186200513220688,-0.08772998400592087,0.08395387887586699,0.16369009124053868,-0.01533572948030615,0.16161714707096445,0.14473054907493393,0.20717834173626976,0.26495780270278324,0.19262578637755925,0.0543764293833142,-0.22958795509225322,-0.22003570379445878,0.07783460422668509
ALB,-0.02928309831178535,0.046476107354549386,0.042969716292430106,0.12342439914698144,,-0.02824207318292594,-0.012865324178444873,0.05569305180698014,-0.06605991630502915,-0.012128979225605765,0.024206827478949772,-0.03511004360725391,0.033061130839724895,-0.02904846870673235,0.04336633065956922,-0.05260155570266983,0.08352829962187734,-0.005198779913049555,0.013400716463337806,0.0033116372562873157,-0.03626375418164171,-0.03754109431091296,0.05854233281999953,-0.044489612956433985,-0.09255271404681467,-0.009705605941640424
CCL13,,,,,,,,,,,,,0.07140101608926751,,,,,,0.03245452779724969,,,0.06529172585662546,,,,
EFNA3,0.08457656863699939,0.032248861582614904,-0.12276350914559697,0.08297062924485028,-0.015153266458562936,-0.07233435454124797,0.02787249914347687,-0.07816476978229268,-0.20715555573293476,-0.07765992583201566,0.014059493426984648,0.045727555330783556,-0.015391943052428471,-0.04590790728186211,0.05430075562370046,-0.08162751072248166,0.011339668987714428,0.064244152870083,0.015734955732451854,0.03354981860018551,-0.07311452200459384,-0.0669724379880416,0.0015653505379221175,-0.044891677117326,0.11360066436311979,0.10955274246587801
DRAXIN,0.06187168605871235,0.17906679748086451,-0.10146800580853002,0.07101725617638337,-0.05468076745643232,-0.015097718873676894,0.07888175991384148,0.17093200783045268,0.27686280410652697,0.015347090555843376,-0.02349173522369387,-0.04168004110732614,0.11811050226005601,0.025867925199533806,-0.026116538300822743,0.07991422814962813,0.01545038648494379,0.08876703595367653,0.004392938611370826,0.07226346696745992,0.09593186576629399,0.008846233765433142,0.06970920554483608,0.16589535260096827,0.0005684046843462081,0.009653753071370943
RAET1L,,,0.04174388574828837,,,,,,,,0.006274654220232444,,,,,,,,,-0.0591850181247394,,-0.016645191405242087,,,,
NPTX2,-0.017480117256369845,0.1735670373468302,0.04849554393698187,-0.016856383362884187,0.13996177740990662,-0.022204065082316364,0.015108140842970354,-0.16116975417358714,-0.3321849670269596,-0.032797819555748946,0.021223481743576925,-0.0003808052059253852,0.18037294377402827,-0.03802533072534468,-0.09441767902006991,0.004859672985351312,,0.016566869135787345,0.16487024666153027,0.09786898153953168,0.14675714810311777,0.16137132197638,-0.022459873556251606,0.2346741896015543,0.062162315456989935,0.14321263193551778
FGF11,0.03858379705434957,-0.048762563935883636,-0.13601060625910352,-0.006497460923714456,-0.04438894413293757,-0.06870084732897612,0.008326412085342766,0.1158585343086803,0.3478343974728458,-0.030711575804136592,-0.037238239260923504,0.009930353703648346,-0.06746796620159211,-0.12169485785436022,0.023358170562881416,-0.1325625605230815,-0.1112054304303293,0.07936047055931272,0.0394438885173527,0.10249186775913878,-0.020133616277674873,0.014610650431679324,-0.015213079316598929,-0.17911941166402617,-0.2532196128647014,-0.007256413169963862
CD59,-0.09124265569374077,0.17193726600010795,0.3855866043732077,-0.034237455525255076,0.1788395529070383,0.11459149664521887,0.030835045996067994,-0.08353116982283337,-0.15879083097633645,0.050321350406924446,0.012015360111589858,-0.025446068300412256,0.09831198092076816,0.2930782877090157,0.2959682714602664,0.1551290219479842,0.36050822587456066,0.20729550119568715,0.12111426316622441,0.16305490491521807,0.0929517579393446,0.3012101561986173,0.03300058785904049,0.3826444800553869,0.4203566798099965,0.03237103896472859
COL9A2,0.04244198653182596,0.10485083875452993,0.19026758205366767,-0.014600593689411428,0.14999348827682607,-0.019156316902927958,0.020969148391876215,0.10328123259698524,0.051684953588644986,0.01952873452899159,0.0482262539674035,-0.05049166368393709,0.08594075194197787,-0.06666471267740516,-0.03769326454804381,-0.03460511808867614,0.08562170506358417,0.04120973771578589,-0.038359051952014875,-0.07841251532288952,0.08225193539640524,-0.13097654880100945,0.12208003303254537,0.054985144708870115,0.08178281988209853,-0.02706467748291285
DLL3,-0.15018041583554678,0.13821929010413264,0.08925263934398257,0.01017298916828989,0.16427481053936843,0.11685356385783213,-0.03501247570121689,0.2054375165755132,0.18233935956404662,0.021688725001503182,0.012377733426937458,0.04893786084114603,0.019792781571025018,0.08311763621329799,-0.14853127620771372,-0.056148657300830684,0.04839426345410089,0.015080429580775417,-0.11862048390320212,-0.13243594802970388,-0.13290155404132464,-0.1398018433981238,0.05463698936192995,-0.13171428591345835,0.1581701715444926,-0.00593895753410571
FGF5,,,,,,,,,-0.02009897916686418,,,-0.008039887528905259,0.05056681057695514,,,,,,,,,,,0.06628565273323649,-0.05254577844132844,
LIN7C,-0.011973962846629849,0.03885033306330274,-0.03210693454232805,-0.014715949834890283,0.0465741437688798,-0.04900448182864724,0.006737073897327129,0.017120288420557708,0.13250515609068736,0.010838639450210569,0.023840731712379878,0.0124458108691579,0.076853008514842,0.011531168347581463,0.11042647609340965,-0.02851272033997095,-0.07782265135342198,-0.007348335623461752,-0.048485416333652574,-0.08670973068111815,0.11696972815188603,-0.14657019974723481,-0.01712437878520726,0.0008062909304203072,0.0018371380799495035,0.01084105089384884
GDF7,-0.043308146679600174,0.010471741502969189,-0.0033563069009474845,0.05943541196508931,,-0.042616255416947864,,0.04245011359911045,0.0865771736632723,0.003958200737046263,0.024119411582224973,0.014095066278490193,,,,,,0.06988849902995858,,-0.06294927546671454,0.06100863309999925,0.0644225967979122,,0.01013678119085516,0.008073784941664131,
PSPN,0.0794934379068361,0.036284028819227127,0.06570820842434452,-0.02046947671208692,0.07305847642583306,-0.02346398462200465,-0.013550311123553338,0.019907762298507083,0.08212427537964923,0.046090636418407854,0.02977599095415294,0.04282860785133439,0.03527988852092462,0.017804409491642623,-0.02216296166864718,0.03227415947615731,0.043363818578617645,0.09641139482906305,0.04751300018617308,0.014558709622204104,0.03236762217378653,0.04468942160032103,-0.04649051328361424,0.045272037217930196,0.06706685890637154,0.03303594254721743
ANGPT1,0.04520962336686383,0.06899111837663902,0.14515027507490988,-0.024440969006466855,0.026656499261786478,0.0017018399806045718,0.05156796127648294,0.02876719800468069,0.22547628473290748,-0.01908818712937001,-0.014864999837446016,-0.019010366777623355,0.09168151704312474,0.05952205057613588,0.11296434270786124,0.09917505682863922,-0.024965925862645982,0.12357461804440321,0.06954083567560748,0.12664657728308404,0.11157174245613993,0.0999083782967465,0.002136456177202202,0.11032975977448699,0.1152845119329984,-0.061994477616574534
PNOC,-0.0173320128657989,0.05268782276927713,0.03440574370383827,-0.003273765851557625,0.1035341375289153,-0.0713440988083375,0.0018582736895474395,-0.07806230897856713,-0.21240740181078602,-0.053174840147554685,0.044084637333296615,0.09693370726906174,0.017689417807819994,0.07428561673849422,,,,,,0.04052281062611784,,-0.03043057103230442,-0.0034684287870135238,-0.016723019996485778,0.15689565099369024,0.14349955487329832
L1CAM,-0.042949586871781,0.07421417546252072,-0.09370473799110797,0.06093689154526689,-0.05531073734319615,-0.017059491886514424,-0.009617187857033183,-0.050199268537782143,-0.13490302862710782,-0.015216878956229913,0.044579405451842954,0.08411707899897758,0.05847431880831515,0.1799615317790151,0.0567819322838817,-0.036331387884292285,0.040698292982869116,0.04130553079971455,0.01124789843904139,0.06078296792675723,0.04000914199570145,-0.060160650997447246,-0.05318541865935539,-0.04354742971488453,0.25160946737886025,0.10910889291264535
APOA1,0.1317404385377597,0.06473099793115242,0.039504808374750774,-0.006588079201107518,0.06597531523078859,-0.012535114444235124,0.05110493913526258,0.110975115201014,0.11201817194875921,0.03058295908655378,-0.018703767517479125,0.028274065540524723,0.10178915473551017,0.06036232542733457,-0.028674092115926295,-0.025936340412526758,0.09668994676936231,0.11779966586346004,0.0032256289961240304,-0.0035462547144201094,0.08592164512310937,0.013928075005594578,,0.06369307961041559,-0.060326930122137516,-0.01087477917120795
PSEN1,-0.12886630817913744,-0.002434122316382922,0.10349231809347582,0.008835517242088213,0.030176853225876002,-0.0054785028144249005,-0.06516502967078669,0.017816419280906808,-0.03067059314708758,0.050058729104527196,-0.02774920872214651,-0.02904148209846753,-0.004422826128921875,-0.0482953363087268,-0.040056175255766664,0.09148433485909324,0.04992888461572107,0.008325426335875902,0.07578992773036868,0.026835055752354037,-0.07383361975866455,0.015565814003722834,0.013372420132633388,0.0165558828883,-0.04717782240155273,-0.09176157477437503
CALM2,-0.13347088164493845,0.1424946578826618,0.08720947953732854,-0.050931386589085824,0.15777697198404608,0.0618409878477016,0.010470890827243104,-0.1917922527348618,-0.46013305009369293,0.0037815840254466922,0.020212926826008504,0.12573067711570773,0.17360656843169292,0.16448893437658996,-0.03434587221810987,-0.019316602873602626,-0.023461804959097225,-0.163150033578801,-0.07806921795169572,-0.05411740277146782,-0.23664659868325358,-0.1806744998852523,0.11526971094612667,-0.22145155662399843,0.18091252525730053,-0.015225614200617977
CLEC2B,-0.014859114988086139,-0.10795606484389035,0.04582443357516277,0.055637218889285356,-0.07324820669914026,0.06340260160012808,-0.03806754488822502,0.1118226384169885,0.3989797036994615,0.03877284520313541,0.03141932547754198,-0.07446826089730188,0.006744061657882335,0.0659881443595933,0.25006849210588206,0.023353740624888694,-0.0027353001476777172,0.08470387357733714,0.14260894654239645,0.07818253297791138,0.1096838337613227,0.20724281138095701,0.03420117955506691,0.15449475584913078,0.04546861986410962,-0.03588897584717531
NTNG1,0.0833679877872241,0.059862686363113225,0.0944578420918763,-0.012061775181976167,,0.02114865337089508,0.053797086741029385,-0.02186888972792497,0.06428850887600872,-0.0012749513222749577,-0.003541533941616715,0.04494550726898177,0.023693974388849265,0.10651569272915834,-0.028230139766754602,0.021856908799028765,-0.13764495450711717,0.08244808258119245,0.056554435123884715,-0.05623424989138922,0.02565374644393668,0.048518563454254614,-4.952465484944391e-05,-0.039682523127695254,-0.12374057597605265,0.08254861818354295
LRIG1,0.04843758586935226,0.13267291143256207,0.06983084413975445,-0.006514680348122549,0.11183952091812212,0.02959551482739711,0.055527321270254094,-0.056481048881035556,0.13286360739278624,0.03858891260080751,0.037445325739724825,-0.03099366842175949,-0.11141792239347158,-0.12211246338014181,-0.017710804941669663,-0.011191409705183706,0.16404506605225136,0.13805141801024667,-0.08620961344619794,-0.09237246326020453,0.19242612668588258,-0.1722368275324155,0.0036444919397438753,-0.2580955676915189,-0.02466921879595066,-0.011498693334821125
CPAMD8,0.007082557028765409,,0.08278994360010479,,,-3.8204155239724743e-05,0.028946508975453554,-0.01676166561981789,0.0388493746414233,0.021936306130322453,0.06707653207822824,0.03755032683235189,,0.06711402151933434,0.018843972691960503,,0.11541427869784263,0.01792997102008082,,0.0022138124890165394,0.0001896476612229007,,-0.032758582940956446,0.1452984770696154,0.0335993895128358,-0.02102126574524335
GHRL,-0.03658771609967366,,0.1086798029094979,0.0006447710101661285,,0.027480706120545467,-0.016597710943782,0.005015443174648819,0.048298079569210374,0.06064712336799227,-0.004091316267730904,0.01312859236578858,,0.0673961498191218,0.005073615263734059,-0.10792181501606231,0.0099710791402876,0.053570093182913066,,,0.008641527310354884,0.037902341321439915,,0.0890081905841917,-0.05712610831810628,
NPY,-0.018377558027574875,0.09293478069962807,0.178890037561886,-0.035237860756790196,0.09284005343019323,-0.03968695598969124,-0.026912781479999693,-0.1405365516916531,-0.12908087725522027,-1.7574401181033684e-05,0.015069891621568072,0.006035911218389388,,0.16528954184720324,-0.1378841919264949,0.11760552675633108,,-0.03305732628056271,0.05898971389644622,0.14197853513174252,-0.0824370347366673,-0.029583484955325777,-0.04701395983122074,0.14985414867724525,0.12360789828399492,-0.05325702426827394
MMP2,0.038372261474582496,0.2721879581752329,0.43679131931219395,0.06693136434055315,0.18243632326653153,0.09459480149888778,0.11864696579836702,0.13816933189859426,0.3635719464291049,0.021749887616646094,-0.009685600475321549,0.00809534448688297,-0.20957205427125766,-0.021053288899544158,-0.01637096017838847,0.08225923291242468,0.27361232536232005,0.16497030780736774,0.08043365226617878,-0.0016934316573382763,0.18824350454105387,0.17485280136832246,0.14059869087681454,0.34698952691601237,0.1725610957247256,0.08158671762273252
LHB,,,,,,0.0636881957503816,,,,,,,,,,,,,,,,,,,,
PPY,,,0.108515724079549,,,0.04554200615377094,,,,0.046722267629087204,,,0.05251536166529078,,,,,,0.1322094473772038,0.13195125573889932,,0.10579909547315554,,0.049736586787431765,-0.00550109740020973,
ALKAL2,-0.05649442225618114,0.0039621762034283345,0.08528055219299215,-0.005288114204111632,,-0.01640600191863768,,0.04646682136379391,0.08664165008976127,-0.008083480987996917,0.01092005808871978,-0.009942661228981572,-0.0601801407662992,0.004415965137160427,-0.007066291236828389,0.0038027084905759255,,0.1232759704634543,0.06767702757081132,-0.016645762744420145,0.02994097721858499,-0.014292657360596294,,0.02203049945293235,-0.18400948321267555,0.09610641389024392
CSF1,0.13159904884772858,-0.044293008706647694,0.11792072691861376,0.014225183072883625,-0.0033718841195752966,0.028139174673989187,-0.00712826059697199,0.12483849890022639,0.2399112089533888,0.1228683014793009,-0.017010250048774742,0.031162247767360842,0.2073988171396419,0.001225516249320954,-0.012603468050809903,0.010022777689866999,0.03443231076553138,0.09606548876416203,0.1343025972442866,0.12003029182818846,0.1312234652754912,0.06329938989464194,0.024160736106162515,-0.13846820847600813,-0.13173930342428367,-0.05498980498910832
SEMA4C,0.07529028245026123,0.052810087376718315,0.2197707205172824,0.008993807856297435,0.07665446929782425,0.013673758982679337,0.013698273285272148,0.14083804950360254,0.1209811884663031,-0.04328451540340734,0.010448194141626314,-0.04530785557115021,0.14588068486638575,0.004646373442078718,0.19679725416049992,0.1905097789681969,0.14552418334286346,0.16311306656391578,0.028894941305640912,0.015473013017619417,0.07214733120593553,0.11797425246836418,-0.04626163960942999,0.26145139443549126,0.05770739960284363,0.011480083394733312
BMP8A,,,,,,,,,,,,,,,,,,,,,,,,0.15668770890700692,,
ICAM2,0.13992755241639376,0.18840461911191617,0.3739982345247721,0.03135755964263097,0.16182579865534108,0.10500806423449151,0.05323395576619225,0.14067176615021484,0.3619317736530837,0.06195959738842076,0.04517983824671793,0.1063455454475889,0.248293052834477,0.14947301628265172,0.36268761386909465,0.3373201959058448,0.35310144612274547,0.2725950979862847,0.11697442855038982,0.087679253040325,0.3566574504016399,0.11819073117075861,0.03874617695973908,0.44193146662488203,0.40657274243110164,-0.023946525542981708
SYTL3,0.00468702186414181,-0.027968507999132818,-0.09995949396830245,0.022641518833467624,0.0026341313980105716,0.012289294862722714,0.02625066290799302,0.07655540665456992,0.22844311672542614,-0.003593934483982103,-0.017253087008359782,0.03862795455509929,-0.035710436283054474,0.043710834019171745,-0.00655813251507892,-0.10979919241624805,-0.08486054121382432,0.09399198747621247,0.024753742611015365,0.06762222396380847,-0.00802042052457276,-0.05263813079889022,-0.004146342293474831,0.12367453611891221,0.03951086066543294,
IL1A,-0.04244203360001888,0.09128946730922993,0.0750681362813798,0.017279115068977634,-0.0688113801950311,-0.01563085946779241,0.027041313678925913,-0.011379346894066007,0.17238915321764206,0.0628575518188916,-0.027564194131590586,-0.057606941417333,,-0.027286772198368732,0.050316727736258914,0.027411463658141247,0.20490585811790496,0.14938665735959472,0.07102505290936578,0.04430232459373039,0.03405353432603056,-0.039150372640006426,0.07779323545510713,-0.013698142139996502,-0.0648428445381494,-0.03698429363880088
HLA-G,,-0.012154472230266803,-0.12251939801315226,,,-0.05877856980136536,,0.0071642996359502,,,,,,,,-0.0017589437486366516,-0.00946580778905063,,0.022981792085808056,0.014225211828317744,,-0.020265741009576784,,,,
PGF,0.14798550542130107,-0.012276577788689161,0.5230095623526316,0.013061241489147593,-0.010705917819858135,0.1953505549035814,0.08718015978927623,0.20679442766532227,0.4711640183928456,-0.002509025778121208,0.015308693923908137,0.07117363952536367,0.32564290312240846,0.01967104450802269,0.4009549284932553,0.3231591693515822,0.189316460352463,0.38146762064459083,0.23546742642776453,0.07920240624530266,0.34290177186060067,0.23925259493384401,0.15153915272627833,0.4345866543554916,0.3929124716786744,0.09245034198176333
LGALS8,0.033772115223013245,0.03269337618375945,0.010237970299132872,0.05397937134261607,0.00025834166929083297,0.006939739471139669,0.0460841493478563,0.03509022690061969,0.1224323654532749,-0.002446827575288048,-0.03430395913928042,0.08624655222869682,0.05905811657057843,0.031159793725961334,0.07143640932220961,-0.05444246173757288,0.015574311667984675,0.14308203927287347,-0.008717012800873948,0.02710112090561897,-0.004931934262469156,-0.003392868681922977,-0.06338124761363062,0.05804932296206991,-0.001597200816373059,0.11476382652852186
DKK3,-0.06178407596894235,0.1996682812997539,0.12127168727465437,-0.042109373272221126,0.13007246134940476,0.0017236868082351226,0.041982312414748243,-0.21269308574843132,-0.2798331187095023,0.001164259629772811,0.04746819098167336,0.10303707948107257,-0.046271714421296926,0.24295144568329904,0.3051334300516287,0.17692103078399296,0.07600880362156981,0.07002792645823744,0.007776144053743345,0.05938167749684083,0.19083400598609318,0.05691852314124346,0.015974645110780568,0.14455146837389532,0.43926127718627417,0.015393337808312943
COL16A1,0.16352115328445016,0.12603639022929505,0.33313908706472584,0.0519855351429398,0.10742896601132942,0.13822387971310104,0.042568021329989755,0.08166115397917359,0.05824124490608528,0.09565438598853336,-0.014698652772799319,0.062354060515481174,0.2178701321517441,-0.16569822582659935,0.09476458509579137,0.14198389625312643,0.0319900111781618,0.05013792771108895,0.06870435621686656,0.05181191780436094,0.1473216934310234,0.1583742708499505,0.08443781408306472,0.24053051515717433,0.10372061642201977,-0.013517940243646148
TPH1,0.03734428722615954,0.09234770302356488,0.02283139128438682,,-0.02024781548525305,-0.01076509130206847,0.01574514279190712,0.07163356346412227,0.07671041382762217,0.033404425582248286,,,,0.06158558764113613,,0.00968465636039122,0.024222554161481197,,0.0027294688990680102,0.014744455162494435,0.14958821738981545,-0.006478720684318014,,0.07722908877256947,-0.08135561524548347,-0.03296465141395968
TNC,0.06871981498920343,-0.04711127958668283,0.14185246495032627,-0.02153516883011327,-0.048135790108069246,-0.21666684626326924,-0.014055425173271546,0.21615252408194627,0.4278003612870275,0.056259133631453025,-0.003016688113655664,-0.060604852404347376,-0.17581493622081287,-0.10893773125859177,-0.0652378477444844,0.05911975780193397,0.12036565551519282,0.1630322796734146,0.10305438323450518,0.16090865495973694,0.20042704558241292,0.17621580739561143,0.0104530308219502,0.04573546063059976,-0.3832316836662529,-0.1328818815103546
TNFSF9,-0.04269424354698482,0.02462739823751613,-0.009304512337523501,-0.008392524353435765,0.06023511716872919,0.0009063172228316019,-0.009452452614209331,0.026583012112834203,-0.06843467924093759,-0.044743550483917253,0.07031095420330621,0.09834182305798374,0.013167582571997316,0.04409282086003283,,,0.03707670978822724,0.04012031130341025,0.05439434992990777,0.046350020886463374,0.03391662558670243,-0.014630648597630741,0.018523122208470424,-0.06161470415507723,-0.03573516810119912,0.15696216329410656
C4A,,,,-0.03578205196043048,,0.03193614378298513,,,,-0.038678482035524875,,0.047416765178063286,-0.029384857537725552,-0.026238728552578097,,0.016787361045441204,,,0.07620876442148426,,0.006999194089982681,0.010862121604086944,0.0714331837472475,-0.08233726029030576,,
CNTN2,-0.24227297999729347,0.1511682958239168,-0.011536343177612119,0.035903330188364994,0.11838377409983362,-0.001052150061812883,0.02161734607499301,0.06946683062712938,-0.18888496962803072,0.015062404755522747,-0.0036822052228183385,-0.05349214426476706,0.015141569976395883,-0.005423847094570977,0.009102313822132068,-0.052379724610271385,0.12487849499166256,-0.1398740924432232,-0.06510568482608292,-0.07709773071730426,-0.30693264576275153,-0.10320510511185892,0.004662893405495007,0.03486394916955044,0.25493545591175126,-0.08874721760219019
F7,,,-0.01495112661428225,,,,,0.06512497502045385,0.05309148913533747,,,,0.08585634725956238,,,,,,-0.010015094279138012,,,0.03059726850962845,,,0.0715388745090875,
LUM,0.2139065490227709,0.09392593139385846,0.531681152166496,0.013066113601936852,0.14972606743990177,0.19180082825895958,0.10849688343936448,0.14114034452915455,0.5184531470139352,0.06317700811603978,0.00037486615111991136,0.01417442794419504,-0.1491052872016658,0.20667692366340645,0.3383904235813248,0.3206980137697612,0.0845862274613352,0.2861900690188618,0.2624182777347883,0.19131206892426317,0.38943450408776775,0.3563056960808191,0.04219137680701424,0.46833564931573723,0.28313935436871973,
IZUMO1,-0.021262441531044663,,,,,,,,,,,,,,,,,,,,,,,,,
BTC,,,-0.00899287444490307,-0.050391312800286636,,0.02032626396827195,0.027787052816164413,,,,-0.017358474967360378,0.015313563332422566,,,,,0.030966255709255118,,0.027900196151347728,0.03678923453707887,0.04969974870219887,0.009012327229291368,,0.03196149820630152,-0.026410487589172395,
APOC1,-0.2817986528213814,0.01026037583617317,0.048609686268002175,-0.018009693936693796,0.16644376444885234,-0.05504856613938672,-0.05634342345580189,0.21810239124660344,0.49012766220357523,0.0454180723343506,-0.004376581351304847,-0.09706720975052463,0.1425861819077952,-0.03168561077105538,-0.06194430126773062,0.18942056681335895,0.14196683765869553,0.19668027614446357,-0.05437853116085044,-0.12938691877808642,0.05290382654897161,-0.17033541449757397,0.10708047266596654,-0.1351887458886965,-0.03192631295184822,-0.03193698037261463
PKM,-0.01598590166887596,-0.04882137995228847,-0.21136079398978894,0.0030403592631710846,-0.1607447931249402,-0.20272705354381712,-0.05857674515706644,-0.1094497957473151,0.18253192832008144,-0.019095223313730657,-0.016298707521538103,0.1109782625320659,-0.14020638285943854,-0.2177084772508504,-0.10252641954326204,-0.030669550997308906,-0.2214530743837484,0.10396682274957077,0.09285316571795055,0.1324810449721737,0.17645530949340343,0.06230008313569714,-0.015570085589849233,-0.13545010829177,-0.34113117950555577,0.1273286985257559
TNF,,0.22910047107542214,0.11285951985831977,0.011502002614113166,,-0.009465420639402934,0.04501788985245218,0.043513985735864694,0.06607560770174335,0.04270921733164075,-0.03912811341058383,-0.04709235721472067,0.07808002627983686,-0.07993520484894544,0.05762951493863358,0.026266031126723783,0.0969306819555051,0.059054500049636686,0.07470870869981372,0.016568846036821076,,,,0.06610624099983042,0.055441952233672515,-0.03539197806437445
GNAS,0.0730802661244821,0.25303084234515266,-0.24240575443817228,-0.010490429306554406,-0.04247638165739693,0.10265147426355689,0.047555035407513734,-0.18369462517868232,-0.21580138463432064,0.0020666616682411642,0.02313687946385385,0.08947203718419759,-0.2117690285101072,-0.29897268916484504,0.010410028466318583,0.11407011470358966,0.018957704807454106,0.08559378439235836,-0.07933146680453598,-0.047325914501050094,0.2933231733164428,-0.10602114896819999,-0.042964386705849754,-0.10154016154067617,0.3532390112062593,0.12939148195955236
BMP8B,-0.041557749214316375,0.14375858966663382,0.08915784525375045,0.04061914045059115,-0.03215485689169123,0.024345927789243348,-0.04902623681286548,0.1374908074235331,0.014683044675818447,0.02339232901596686,-0.038304855486004985,0.01871118051042912,0.045062978115011344,0.0035433551420756956,0.15856393390166537,-0.040333912826902726,-0.018906635618104087,0.06311943144583858,0.11974257983189318,0.13735339927350484,0.023296253376404407,0.09919774519015824,0.029579475610873218,0.3964009231211578,0.06339404388982645,0.01956338197765192
LIPH,,0.028785829315045548,-0.010548740972495177,,0.005757159932477601,0.009198450107821532,,,,0.00967487342673733,,,,,,0.03384246469761008,,,-0.01990967539188332,0.05934168035674957,,0.056567426854288436,,-0.04050572102498503,-0.07221238178965929,
CCL28,,0.0383511180217593,-0.08513448457454487,,,,,-0.026624622659189957,,-0.027044401633051846,-0.02544129033112549,-0.006639335742055346,,-0.046643997686725315,,0.017936780379174597,,,,,-0.037476942239993954,,,0.03413988662686555,-0.07784912671376186,
PTPN11,0.018850030007603265,0.032716506450411166,-0.04618443266803224,0.0400329779263702,0.07244043633444046,-0.08579611787022651,0.05488940355521196,-0.0009863749618414925,0.029801165897175942,0.022387887436024562,0.004859233578395727,-0.05761648602645632,0.10965495077418436,-0.04302726748288146,-0.10116001097058544,-0.14392241285731877,-0.05312025083938812,-0.04700550306415173,0.03226610316070137,0.009453648858145048,-0.1366012055840983,-0.043807507327199055,0.03565129651601064,-0.041249966022753104,0.08533717357797735,-0.04259312252925627
ADAM12,0.028327528473170587,0.1572497552416281,0.36524407954123456,-0.016668671530413612,0.117236323450776,0.07489936931226285,0.0654902993119974,0.184279164629605,0.3608681661266283,-0.0027700398713211985,0.02589658288507787,0.011257002390242249,0.19656670143316562,0.06836358768880646,0.08975747711819596,0.24622713086007267,0.207692842494573,0.23928023458798175,0.18023069354696206,0.17060859607759585,0.29884206269128494,0.23179756320608427,-0.005926157687268285,0.3665974925964557,0.21476096074154966,
EPO,,-0.05530497125106485,0.0760071070026696,,,-0.007551800634920217,-0.0266073669571042,,,-0.0037789567906268405,,,-0.06394506412898979,0.018595917397566067,,,0.035806082913998026,0.06681026312252385,0.014719730494860915,0.0730690111087402,,-0.03257617122044815,,-0.018307730669347516,,
EDN3,0.0540068884534729,0.06651185351758858,0.04444339192604906,0.0009533425639074737,0.029172266872808432,0.009181811750773889,0.056614790044353804,-0.0347821857517453,0.08078639687060557,0.008074686864708755,0.06241144420871342,0.015060302068672251,,0.014938681815940016,,,,-0.06353519252201227,0.061787628904615796,0.010431873482833958,0.12209630277038944,0.017040068685705612,,0.014206465016179233,0.11876573357902012,0.04675085480005288
CCL22,,,,-0.013061214534210684,,,,,,0.001098643829908326,,,,,,,,,0.07360524307907759,0.032226519416729216,-0.0038516808669486306,0.016608241366090182,0.1260852946288464,0.03326042235794629,,
CCL2,-0.07027898805158478,-0.04183602781150029,0.4174341398249214,0.03733670175875697,0.0736881885047538,0.03366930981160807,-0.004685893040190981,0.07135274895952369,0.18331604200890483,0.08661479536912431,0.04456509166212136,-0.028798368208696416,0.008597566369998842,0.05758132110215259,0.10154743619519362,-0.11112556742775499,0.20333891813447275,0.09855886407914392,0.09689858141234486,0.14010724224404233,0.057448435475701054,0.08139542510323823,-0.09737284697128121,-0.128119213459037,-0.11999374570518634,-0.12713058043468822
DSCAM,0.050667842858963884,0.09979148076582368,-0.006957906859180875,-0.041802402301155235,0.03858473678743399,0.022695673592476498,-0.015988440427110038,0.19827075843676897,0.12631614768637964,-0.043091833145799494,0.07068027922305062,-0.03559400140548884,-0.0025040875429767013,-0.07670385138605028,0.0006309074913870841,-0.10681195385389401,0.09676237398080514,0.06275303463447261,-0.06411757231380613,-0.05795304079537974,-0.09963663964506114,-0.09184345189094639,0.05678267656424278,-0.15130775359232632,-0.0013045627493098223,0.09174644374693858
GPHA2,,,0.15482154602655473,,,,,,,,,,,,,,,,,,,,,,,
ANG,0.06114477509110326,-0.08806151134092963,-0.1389970655752577,-0.010417296459183267,-0.10562128185095189,-0.11013924341086767,0.018521582004837563,0.04659246496041839,0.23938237854273053,-0.053237980229381844,0.007107075154407642,-0.039478204756319794,-0.078430924113299,-0.07178281904967754,-0.010004104662607972,0.008456308571398495,-0.1331372649333216,0.04919647943214842,0.0726218142260617,0.05776071994420848,0.05808613917734796,0.02210158149386789,0.05277453614158104,-0.105237902505961,-0.10475553418520822,
FBLN2,0.06981441940201565,0.03407303719628534,0.1286676607228976,-0.03231423851491948,0.13282413783959524,0.006334534763300475,0.09398364893227444,-0.010959960306813114,0.05249757602596846,-0.029996056322654775,0.04084148730791325,0.07819346832865982,0.19204528935554066,0.11692283493330892,-0.0006506424589548728,0.04749639204006738,,-0.0011909381290740443,0.12878931995748483,0.10580404972751785,0.1500432881120939,0.2508254639110802,0.16121354042604058,0.13274697504783106,0.15972574877723647,0.1958777712374052
VTN,,0.02197457384881003,0.07125611662018609,,0.06081325406947469,-0.003655478074632069,0.04795634692027537,-0.010419198981689665,0.13743906185273266,0.019363655449226202,-0.011958445694657852,,,0.016700220855143423,0.023819838990475253,-0.02351432009009761,0.0780392736012574,,0.05485497989357022,-0.054831419981989656,,0.05498358166048711,,0.005766589377719753,-0.004584626339835184,
VEGFA,0.15719102179361674,-0.19855942153684752,-0.5051931014132082,0.0737455701542222,-0.22879570532037452,-0.18806066774063113,-0.09853354481011262,0.11365571210590157,0.29142854691123427,-0.025748642859531802,0.0018263234195237549,0.04712476163193991,-0.28229387357105223,-0.2861342119604065,-0.01142413425057213,-0.025946399268464416,-0.296686753224825,0.09956245800799875,0.009572488848414681,0.0786212142285986,0.0164898759504268,0.12516262020914373,0.08472571087476774,-0.31360498912456314,-0.4213428240309885,0.043058075875935006
F10,,,,-0.026154104480454736,,,0.023262757000638467,0.0348620150343765,0.10314151554228074,-0.01954942557194605,-0.006227799785215953,-0.05327353118874373,-0.03648126487596234,,0.10651078088500869,,-0.026146988297813267,,,-0.025082884500306987,-0.029504230283499487,0.134365777226884,0.0693092804741761,0.0017452808954376798,0.05823140321639537,
SERPINA1,-0.003807580327964505,0.11726648202161473,0.16015428878650936,-0.02449467984836227,0.10479108064401502,0.012902111733022689,0.031681258807973574,0.10673027167235624,0.34947118273278094,0.020645328754552203,-0.005314093340093,-0.05272425504263471,0.062387256548040386,0.008527817185073573,-0.00014995940746723434,-0.11787553803572962,0.04979424474597705,0.16850890787470266,0.07365048950005688,0.06306230296336181,0.10879234423996771,0.23761918339213006,0.07501329296065098,0.2148422064846035,-0.05907036840596812,0.03851366864073857
VWF,0.3306841969737318,0.25700493681161685,0.6458676401405639,0.05895178092709345,0.24591564110353928,0.33617993111670713,0.201331843826777,0.19594798293914048,0.47043009338767466,0.11601743889600166,0.04511475759365843,0.0913958588296996,0.30434727882831913,0.3527173212321043,0.4828160186864876,0.28838822516980933,0.5299430191142357,0.39532663780049937,0.20498158945441508,0.154361514137724,0.5635584962099862,0.3046184031974089,0.055868047607213395,0.5241497655190539,0.566154523765507,0.10386174803870628
GDNF,,,-0.02742246637477907,,0.015307825065581253,-0.0268260365588693,,0.05157699073819284,,,,,-0.004426722166437662,-0.013442765125815341,,,-0.007226375025604677,0.04423231254683897,-0.008081469092808602,0.05986732068689501,,0.07766595963306594,,,,-0.06285943011772857
VASP,0.08290911388892098,0.043108704979510803,0.4339449263939667,-0.027225869436032796,0.06588196564471316,0.1056462648802579,0.049527130360653426,0.1903719200315486,0.30608883061233055,0.0640785240789128,0.08083906601149299,-0.021349345451174086,0.0769045127318323,0.07995409845903405,0.32434968150029664,0.18745896315375682,0.21123051470123264,0.20268010984517246,0.16187249677819643,0.1391215023939504,0.24311876135318766,0.18357510792654344,0.002075337277820625,0.3385909118645942,0.10403648663264572,0.021236822340366435
ADAM15,0.021451148496157455,0.08533195443658437,0.2332701308048438,-0.00035007146127006775,0.05807430975068841,0.0246269519781751,0.07240918675805766,0.16090057729983784,0.08881013960547628,0.03299763814031835,0.04557804294593198,-0.050115763496247925,0.11132463643843592,-0.006269795447642988,0.056302366472100907,0.16869030667966023,0.15731908182672139,0.12361858481611333,0.0972859352415777,0.15673208655044446,0.1286625429916867,0.0895832248032355,0.05783214191529412,0.11816565158085729,-0.009538499166505371,-0.08140452194850434
WNT2,,0.08007902087934309,-0.09532667426932617,,0.04630289123815143,,0.0768526369903358,-0.023972791115360405,-0.03506971388087425,,0.02882762431693551,0.04728651245457984,,0.08044195383284353,,-0.051285735140507833,,,-0.008411654031307465,-0.03210563266998249,,-0.04499018136934013,,0.12193985426122977,0.023678380594997144,
CALCB,,-0.019495124961773108,,0.033139885899309426,-0.060897614441021285,,-0.007713395101780693,0.02200859190736119,-0.07610958197510378,,,0.0974088774870541,,,,,,,0.024535630439434648,0.009776864145054853,,0.040401787652356774,,,-0.03701715294189395,
OLFM2,0.033249874650153805,0.2036872457024284,0.11718915395608194,0.0491369405915565,0.08860005578033592,0.007580819428360277,-0.05223586676044161,0.05117277826229813,-0.10386953432851206,0.06999668868202068,0.03045571687928555,0.07827372261120721,0.18894709642651505,0.012517310946102513,-0.02009879197968987,0.08172312683258794,0.14045584899184624,0.15591259414035932,-0.10717205701145652,-0.11296159196934276,0.019543716121371485,-0.11753445454531132,0.07824590901983845,-0.1793856865836756,-0.02709669721656366,-0.013145093343335051
MFAP2,0.05683118315006342,0.06249728761156611,0.4653537048926656,0.0016378288493688717,,0.09191484054854944,0.027563484703691687,0.1592713515673513,0.3895711150231478,0.004496156224543261,-0.02688598836754543,0.018514324324278342,0.2715400153213959,0.21966840200226423,0.24538101702334997,0.3008647107830295,0.3246593040100776,0.36704029296767765,0.11435684987684093,0.0509485783600848,0.3604709325785945,0.19570747636708558,,0.4271037844780869,0.2750071947933033,
HLA-C,0.17194183487595172,0.16067808582072593,0.18068277603541652,-0.0577806032191395,0.15883794554774625,-0.009349956184815642,0.06197944779865383,0.12186384127773728,0.4550760532441033,-0.020531450548292658,0.005349282832239465,-0.03474495496828229,0.1867906579360786,0.0015831966500129324,0.07703840944987725,0.10937225050100403,0.24401712241250348,0.17101626179085336,0.12523913774714993,0.11624430364043524,0.2213973101328135,0.23756375767821497,0.07041584015829487,0.2298616689322771,0.21142803241501487,0.03164024174429211
THBS1,-0.04057676320043402,0.09350133510325918,0.23991339867560366,0.0026051254913026954,-0.0001000518194882811,0.05933609503563353,-0.01656951841004585,0.1717375972266029,0.18222128820413544,0.09999655431746401,0.0038124773513124803,0.02015652916581302,0.11822368020575179,0.16036345109174377,0.266409946837024,0.2015579910649823,0.13483447250337624,0.1264065660474127,-0.004832142766416844,0.11067546591133631,0.20004913232622779,0.2847766104641907,0.01499210672481947,0.24425208813048357,0.1392181162730059,0.05007435287936133
HSPA4,-0.0028477283422466805,0.12017771847164017,0.07493886387800484,0.029822447355894722,-0.018298729207757658,0.011864094779297726,-0.017420586701018904,0.08623257189187238,0.14014051247122064,0.04982937495242663,0.06833964727906455,0.07990903870041632,0.09557264736404907,0.0052587149260592886,0.07368715736195348,0.05589252725624961,0.05121512700471508,0.03215412292927442,-0.045163952499207634,-0.024427631168434955,0.05639484574770597,-0.023104291566875337,0.08467376867929127,0.03657511314063725,0.07100724363865385,0.007651855999565421
LMAN1,0.05616138110578679,-0.11080770882455604,-0.12027576916406198,0.024430368310913757,-0.09125102819241432,-0.12453542324516027,-0.0334468164865304,0.09413355923225931,0.3314643587554944,-0.002421677855948037,0.07533095245599611,0.033559515087301796,-0.07964966792606727,-0.0292600493743421,0.060290618565115216,0.06252678971070363,-0.03409278916127745,0.005573751825706676,-0.042329853014907805,0.07609782495327659,0.07132298219365583,0.13970202776782137,-0.08061383727988848,0.030819001253815533,-0.17471550250401874,-0.04578994483979819
LYPD3,,,0.11367881078525097,-0.00868890888039504,-0.04254942207504422,-0.0251078205085944,0.012631912195610162,0.045277011130748904,0.07589302249431053,0.018732318593226154,0.003541947923924398,-0.03481296079927578,0.14715749615305304,,0.15479637860526435,0.07837645461712196,-0.03494124346310813,0.05820915179393355,0.054666722638461555,-0.055054436551079854,,0.06638808907209182,,0.19706474799248908,0.014552355410028129,
APOE,-0.07092951510511818,0.14455547284535783,0.02366480240526474,-0.027531983151769978,0.14495785942050807,-0.09709589616545516,-0.04767995127142111,0.13407806321488608,0.199884383854769,0.03508083114560117,-0.045923504258583575,-0.0804634715648648,0.16888861216356962,0.16174539106713837,-0.18765355431985847,0.04127951407260604,0.005450815370302827,0.06267822602831535,-0.05955700482914906,-0.08433376541224563,0.18053434736523524,-0.0424288391770262,0.04388348264762422,0.0249257735075014,0.30044444537504694,-0.1406826008064633
SOSTDC1,0.03784470270574063,0.002579985552136386,0.0787667860584893,,,,0.02482295900434922,-0.06703719058905622,0.027200544915343388,-0.019947097909762717,0.037816118231860464,0.0004511752644379906,,0.031177332405734004,,,,,0.0038504356708737573,-0.007984405021610247,,-0.05255476121752537,,-0.03062628033549738,0.08560965943393563,0.044763070818909886
ANXA1,-0.10626241846102663,-0.10796781959220332,0.2478954953052886,0.028047214167422653,-0.06190732917410039,0.013945415783945238,-0.016750291327334018,0.1938808502675602,0.40229524594101373,0.042631590514541656,0.010565453599178178,-0.0740186418399447,-0.05465916707214132,0.005811315464297988,0.18435931438184464,0.2212564269959579,0.008577199431481445,0.14994467898116431,0.06880665394886536,0.0811948216894964,0.029712913721429923,0.11795695091720385,0.02641933753881202,-0.1678670803645679,-0.27442402208397976,-0.04267913512839165
WNT2B,-0.02648090599793553,0.0351822373035541,0.01695395245580172,-0.023649052096743957,0.034437323353593084,0.032321295362935994,-0.015049932081908992,0.0037412909983958486,0.18623499677995134,0.05821573710261776,0.06571120349541673,-0.010689767524604935,-0.0012744629826273593,-0.01946367656101683,0.022092387947485637,-0.01548764873140438,0.07348830311401247,0.029374982494387192,0.020802462197774138,0.042689769149314334,-0.03364213868290183,0.058066452667117435,0.1103908314732928,-0.006380103844873829,0.08050998702355683,-0.05681316184175073
AMH,,0.08364803163963419,0.018853364010362084,0.002496807018882983,-0.014780435026815598,-0.04401045471670234,0.08725596884169612,0.05397918314695864,0.12723499114833187,0.0028311748207367226,-0.02818892546131806,,0.1015530430205948,0.0359666783566201,,,-0.007968664823205098,0.12700834573830638,0.0460809601065833,0.0709069775406247,0.0003131687461584205,-0.013169641778565127,,-0.04516598950847073,0.009338399068878586,
GDF10,,0.10944868717623113,-0.022414435207712906,0.006897718040926718,,,-0.003130330840551833,-0.00295737596893561,-0.019549723035016446,-0.03244965392259908,0.005685631648952804,0.08415017515352329,,0.11532217094675598,0.08262572224101257,0.05607353673315847,0.06698456604323642,,0.016002216883916585,0.0027639039357381314,0.04697143639292429,0.020338761439777676,-0.03372323408881582,0.12779417845561977,0.04037399024982303,0.026737997422339402
EFNB3,0.06649085061840784,0.039943704161337426,0.029206257892321008,0.0022945328426965924,0.08308742226321296,0.007353436674872141,0.018856319300936893,-0.0495379599651995,-0.0223785514084986,-0.004858542832901773,0.024764402937096485,0.06359864488418117,-0.039635379538026844,0.15653026332552294,0.005168335850654749,0.16179274272964617,0.06224345530980481,0.08993672006287376,0.018509499478887522,0.005975491243527651,0.22956894146200527,-0.0863267873899785,-0.00039829463352527704,0.016016254324033807,0.08930735276545643,0.1404981692106963
LTB,0.022745545892630423,0.044368750245600275,-0.004107225830243508,0.05492728154814636,,0.02174304536199802,0.05731893198098781,-0.017031226520236965,0.028935751656244305,-0.024649885506915832,-0.006443939748398632,-0.04418933396755116,0.054729557492627985,0.02803059381529514,0.05475642927293823,0.012850116571479565,0.05624779477456844,0.12540677603102665,0.03910361542223153,-0.05209104232778853,0.09302220735680812,-0.04933193644043516,,0.2193338367301171,0.07080641143031324,0.0007933089786973134
ANGPT2,0.24982245669205633,0.22256996237635637,0.557909307384884,0.06721404528279423,0.2131948622304206,0.23861513174713592,0.13685236655415065,0.2441912342404656,0.5498985449131853,0.10414881937743081,-0.0011607831256567902,0.010311077381927531,0.30325795610113543,0.18821269845542035,0.42210802557638033,0.4015629335099464,0.5162888579510064,0.43154213370100375,0.2411952652265596,0.1840729794650712,0.49503897217902354,0.3279182281238828,0.07957197284841108,0.46657476735838255,0.5027257192980088,0.04966235202625587
NRTN,,,,,,,,,,,,,,,,,,0.006167868283409692,,,0.07629740434457158,0.10643479085388423,,,,0.038281451213643264
ADAM17,0.029802514283507435,0.06123005142787922,-0.011289118814353087,0.006383460919391752,-0.03367662062614207,0.07334625862295861,-0.026824739894526668,0.16640374427464358,0.20586796738016813,0.037976613522203856,-0.03531493834299928,0.028463675716049987,0.09106299664768466,-0.009580294267380428,-0.016209615454721837,0.0743638636267555,-0.010471499017183227,0.06490959730652324,0.04907762412780278,0.13609497327935605,0.06095222740687667,0.08408994575421656,-0.010857366636997105,0.0006466559726119013,-0.11853647626323476,-0.031918889605121556
LRPAP1,0.11982876374495273,0.009891064895493193,0.07695028775584364,0.04566232898615644,0.11455436812241801,0.039554132028833455,-0.01652912553053513,-0.11518693198124047,0.14250485054799378,-0.01696618513382073,0.007262719154143798,0.023646418128282883,0.05144230843503417,-0.029934207599945535,0.04957353289488142,0.12700662726526218,0.004490847860044905,0.1126757688702608,0.01772045856913973,-0.0053765318929507875,0.1562884781609676,0.020160666230972606,0.023194646479085427,-0.1220955268231442,0.04600539731608123,-0.05051243592226167
NID1,0.29954846241936456,0.25630899337194474,0.5321798385713222,0.06857246567148843,0.17560118319648965,0.2418788977688124,0.20830099248021908,0.26232082733836465,0.5084336175510535,0.06464977946585526,0.05749295068984628,0.19418197118488487,0.21057524972265004,0.18741445139242194,0.5177440203168515,0.3304542871935963,0.3261070871650159,0.3845923801748059,0.3061546086294002,0.27273632406109494,0.42113720175887187,0.4065979384849743,0.1265819233348113,0.5012919633359479,0.4880292132149782,-0.08179347323145994
MST1,-0.02201052991338298,-0.024893910109061817,-0.012028200273744996,0.008062267044530997,-0.0010035298407477106,-0.013812533900823775,0.060938500106093356,0.12130626324557749,0.3027159862849769,0.005977825662542071,0.011827333351556023,0.04200065707055299,-0.012532348041759464,-0.12257151247205965,-0.031220237009791763,-0.07112562806216796,0.005681738836567017,0.10377865169240977,0.05730912724024972,0.048060615900773304,0.11610943904123601,-0.0156125921553988,-0.006183788861352041,-0.05266402907212186,-0.007879602142542257,0.07204160970386345
CCL14,,,,,,,,,,,,,0.12553182016159517,,,,,,,,,,,,,
IL13,,,,,,,,,0.055148704742595964,,,,,0.0925917183538738,,0.05100204476486467,,,,,,,,,,
