,MGH258,UKF243,UKF248,UKF255,UKF259,UKF260,UKF266,UKF269,UKF275,UKF296,UKF304,UKF313,UKF334,ZH1019T1,ZH8811Bbulk,ZH881T1,ZH916T1
IGFL3,,,,,,,,0.06881772737539549,,,,,,,,,-0.029003633610608332
BMP1,-0.01113888042045039,0.025658324889698946,0.005648659316381339,-0.07168837632156137,-0.0027457606988807405,0.0488534823873937,-0.06055378459388013,-0.04595050024015869,-0.034477385189914375,0.01365178207655919,-0.033823337990299136,0.07804884416910297,-0.0518684594886412,0.08768593756263192,0.052223928535379625,-0.00932762710213473,0.019504716798859324
NDP,0.003684556122043222,-0.08210882891320376,-0.008886564488955015,0.05962495269583653,0.011234271427488889,0.0300193830507384,-0.054410556498695056,0.055932292432590895,-0.014743243932260742,-0.02536181061595179,-0.03712124955111054,0.03590826770782573,0.024999581694106633,0.1043510281230939,0.023530963894140507,0.040256651048956024,0.0318387974379391
TNFSF18,0.18077606737046498,-0.029623431173866496,-0.022796989997985434,,,,-0.02118377252736896,0.004238132767064901,-0.019770906086872528,,,,,0.08339317512564623,,,0.026877516381131034
IL36G,,,,,,,,,,,,,-0.015795204219092633,,,,
RTN4,0.06743963956580841,0.0317945699985406,0.03752753642538961,-0.035603289222192414,0.04159940370469836,0.025691683172123263,0.06346746801919018,0.03184983860224541,0.013464745548295428,-0.0020583371002782427,0.21095835130310836,0.05224321160202269,0.06846813128451744,0.0914110370791705,-0.11170719295856543,0.02426641253422905,0.024769762286236983
HEBP1,0.01651266643348603,0.0018840196159761304,0.02525536966766287,-0.030962262239199814,0.0114458941635081,0.014399542657380717,-0.01764017169828293,-0.004801946878156478,0.01908208148827313,-0.05635065589009042,-0.0594742661493553,0.012597185274489794,0.04031726733374318,0.04139254218599094,0.004020907796431525,0.034508842637642305,0.04075320552334393
WNT7B,0.12417576706952732,0.06522999226648915,0.04831705123759656,-0.031594055904801126,-0.06024968059782229,0.003009662970330528,0.04269671089166561,-0.013277343278520851,0.06409323746086337,0.03536617907062789,,0.013333747279251138,-0.01736074969822217,,0.08798815149674402,0.12787486632984785,0.017757612861484966
PTMA,0.07011208588442931,0.07876989585669956,-0.02456858915978931,-0.10188076957445225,-0.058114822363732145,0.059655504780114145,-0.036395805397655405,-0.04013331450790194,0.00046108575949776987,-0.0012167560861161427,-0.1853893595302842,0.030115207673910616,-0.1092734376715296,-0.015073446448909131,-0.0782034581622039,-0.028172266260858458,0.010935747404180629
FASLG,-0.016229759680871977,,,,,,,,,,,,,,,,-0.025154841535748023
CEACAM1,-0.022535163354670925,,0.0023894124550723553,,0.019765417812597583,-0.02607110366999184,,-0.011595513552309951,0.005697829993354382,,,,,-0.01992501257102259,0.11017042099839267,-0.01351765766452986,-0.010880180124012848
PDAP1,0.00045241435685472307,0.021900435971678477,-0.008172556773388934,-0.008423111563650032,-0.034488454343542314,0.048576069027557164,-0.03156365833904356,0.025330654802619177,0.06797772523361843,-0.06027213250661438,0.11539354408581602,-0.050690845972376324,-0.028477565207721788,-0.03325620436776716,0.0010650812427200537,0.04132645108010079,-0.06474713100328801
QDPR,0.07647380983615408,-0.03656849454389606,-0.002909154443582683,-0.020256826911823088,-0.009991266879883711,0.007269723819910621,-0.0317844782428389,-0.010660538279918188,0.022627911869797943,-0.01313706673003856,-0.09245145760668268,0.05421084889567121,-0.021343103464427707,0.03501193137498161,-0.039578332178749835,0.0004978254737194521,0.04207593934895791
POMC,0.018060792682395858,0.014629867219999189,0.05792059510758543,,-0.04998070324260013,-0.023082951296750816,-0.040375945985140896,0.018543139115855065,-0.022940595976781587,0.017505090931821243,0.002378324625766827,-0.029904740206578313,0.027849311291601245,0.05134326452101412,-0.03710727963426928,-0.02211311218353496,0.022110505896963818
CCL18,,0.006490416442453883,0.04319975332902548,,,,,,,,-0.04791801950452606,-0.027222754941918465,,,0.08318209257378344,-0.007051896716154989,
CCL17,,,,,-0.002382064552040484,,,,-0.024658169167510614,-0.020630338625558294,,,-0.014429367479836861,,0.05133041113869549,,-0.022800038469940248
VEGFD,,-0.04476123227280899,-0.03209876383598613,,0.010566679499243056,0.007155887761430088,,0.08678273564109117,0.017714214493992592,-0.015132602873311108,0.025104840402496376,-0.0202048513364246,-0.015464400053799355,-0.024049791519569905,-0.0158399210465669,,
TNFSF13,,,-0.024222757233924582,,0.01747154807973904,,-0.002045218245325007,,,,,,,,-0.024854473770370696,-0.015179423569579693,-0.03715075964488101
WNT5A,0.00846349819809535,0.004932868970888195,0.029139650634056134,0.007166592230837782,0.05558505573508044,0.048063888831054884,-0.06652900842253585,-0.012513786662978508,-0.02798308369568491,0.007157533157319103,0.037431671453972706,-0.03330449213124817,-0.006858055025102431,0.02639710448064572,0.032361738811365844,-0.024402611276549007,0.10339410702990999
CXCL8,,0.029492964107259555,0.03977421508088631,0.054863946402906066,-0.016836991113966172,0.034016622621768085,-0.02922228018187605,-0.010228219425362114,0.04389853127678858,-0.014092137783075208,-0.09383542384162669,-0.02428928341867725,-0.046495533725040464,0.05123499129308863,0.05941842754108696,-0.057810005122710305,-0.026464332649628983
GRN,0.03898063515855302,-0.001444741333728192,-0.05235867964137729,0.0032443612757983215,0.01453431062566544,0.01318388542857323,-0.058133035906893234,-0.04434838173145536,-0.006084592477240872,-0.046446248510716936,-0.07913193250861958,-0.06565052341597005,0.0025220271582503625,-0.01950458901493559,0.05795346889127681,-0.04771550243220729,0.031610675484770215
MIA,0.15095854564527036,0.045895282397653246,0.037642610548988535,-0.01795760060186245,-0.0070695640902970975,0.03346735328866309,-0.01549127572270044,0.0010166065571601832,0.0757136000123022,-0.01721014887190032,,0.03040152349758987,-0.021179204569403438,0.014327128695175691,0.04268772049494041,-0.08381881206771712,0.054383025929134764
COL4A4,-0.018796039296133014,0.08020082064195842,0.019286986782637263,0.03214708571519128,0.015962312130764798,0.03410610185012775,0.05560701306752385,-0.017297851867340893,0.04806622229610688,-0.028911681427055778,,,-0.020544614161715845,0.034143744943866704,-0.02536219030838529,0.029358482108974602,0.045726180267805304
TAC1,-0.016229750850927527,-0.01414176829384201,0.03383149609937977,-0.03744853749609434,0.04919618013203263,-0.03325714261143095,0.03735704436014106,0.07881865903457992,0.006275466348900132,0.002995156250341192,0.06055335014958195,,0.05204587744899381,,,0.10518464652692597,0.04149116680104919
RARRES2,-0.08010084946937973,0.018661900838576967,0.004665220008332119,0.04986479194649903,0.084501906733101,0.06278725054902702,-0.011798346773030502,-0.03927958497452489,0.043160219829221344,0.0036714157680948364,-0.07300162248398835,-0.06374671851190074,-0.03511378641994249,0.063283627244889,0.0683578664965204,0.010572028460089679,0.05353550580069386
FGF7,0.06359443952808018,-0.0976278797679038,,0.006200866486652237,0.01460582458215392,-0.053460432898127304,0.06089605325212959,-0.00498918507968848,0.04284446064061608,-0.011351942367238285,0.024286562195551444,0.044401149897010724,0.00243655998560433,0.008791454228739799,0.04794173741743428,-0.01532868285546237,0.09102027738553942
EFNA2,,,,,,,,,,,,,,,-0.015054784898503154,,
HBEGF,0.015448198285746622,-0.060625676019997785,-0.0404591821005744,-0.014603675331246012,0.04942373891227899,0.07122441558160941,-0.021849827274582328,0.051838658423186315,-5.592168846279344e-05,0.00501666962174809,-0.04070438681313358,-0.028958631332553914,-0.028028773035201564,0.060157348880375654,-0.03535110281433258,0.05565026890952178,-0.003033413825866686
CSF3,,0.09891964655911711,,0.1402869756565439,-0.03631092226699898,-0.005040258069992957,,-0.01830079433334206,,,,0.023576855103065533,,,0.013860712036048144,-0.019379408756106446,-0.02400492318776793
PI3,,-0.030911746296625738,-0.013269966467977953,0.0936420380223485,-0.0298871858774777,-0.023817470318071174,,-0.020606935963683463,,,,,,,0.03138182718155021,-0.06519791881076895,0.004856138940555228
PCSK1N,-0.017271014038031485,-0.017875213660124855,0.01942061285665169,0.04648780350689611,0.023093796773831114,0.030943395214681146,0.04050438160385449,0.0363217525346767,-0.04174470004163464,0.09601143713253828,0.2150397118918081,-0.02496554974881932,0.07405801843537686,0.0732965937951774,-0.010740105956574746,0.01063050985074042,0.03216997753291619
NTS,,,,,,0.01720327823122504,-0.02386190408508012,-0.022493877663204605,-0.01053368603062777,-0.016505041588440482,-0.03707521754661603,,,,-0.01834139855129876,0.046626443765294893,0.014341621507610317
SFRP1,0.053825096588433534,-0.004124135250353339,0.041764495335229995,,0.01703343273306449,-0.03939834212083497,0.0058998533894334725,0.03179601862256696,0.0019160595183120735,0.01990998977757392,-0.05435047983098565,-0.01971809843682599,-0.04120223474058175,0.03168351047065826,-0.007523355551993323,-0.008115838628432294,0.015749404605107382
CXCL13,,,,-0.01628394234680855,,-0.0390442601815601,,,,,,-0.042101748969508294,,,0.006667131891931474,-0.03161184845612294,
MICA,0.003111481382966766,-0.0323396550589008,0.025306334454000087,0.04881023020842626,-0.00838282442923183,0.022836485227054372,-0.018870365042252337,0.00496217185604357,0.005301797400115169,0.031281777864413135,-0.07275089261575023,-0.04588610872095861,-0.029632718349692565,0.050900493237463804,0.06529841970323966,-0.04185895197227477,0.048907794313922476
TG,0.07858939371567512,0.1470182766917386,-0.021574027148721257,,-0.0214376836317155,0.07978602848687426,-0.027542927628863095,-0.022087421425327203,0.022305155626665078,0.003766603144463589,,-0.043125912311325135,-0.021674945980871257,0.0010130423691888423,0.10351769947918693,-0.01594955120152648,-0.018227847442806325
ADA,0.04710363425193604,0.0027359000975358243,0.02831824914567931,-0.009034974163716191,-0.049190959730862426,-0.046624276861694576,-0.021077484683645384,-0.03413132043838475,-0.03367655049988951,0.023846054360737154,-0.09216435807439168,-0.03717800269205454,-0.0017906674899702923,0.04278310826383424,0.044545141721950864,-0.05217545494934908,0.06601719628089861
LAMC3,0.005343526721434268,-0.008566887164134703,-0.038828398927487975,0.06388802007029329,0.008707951112065775,-0.08194453624869476,-0.06238937832780476,0.049690595564838416,-0.011125865432627589,0.008428159038441064,0.006520271224417102,-0.01594520202272862,0.10501233419927948,-0.09207216645440952,-0.010841232710088801,0.027868284334628728,0.031203012420806104
CCL7,,,0.06334572029223633,,-0.027451987044803988,0.03423439786896324,,,,,,,,,,,0.03981007904130003
NGF,,-0.025960321768363364,0.004523816528524059,,0.044983601414622175,0.0003489038282473739,-0.0262833404400094,,,,0.01976007698066528,-0.010309747632507542,,0.09431057608244248,-0.014852423261515719,-0.03327020987398998,0.026585813961309178
TNFSF15,,0.09359122968396263,,,0.011914944806079464,-0.03832698600523482,-0.03191373747125971,,,,,-0.019330201068880927,,-0.06727787128910424,,-0.012034280134144542,-0.01669666882031381
HMGB1,0.07477389434266767,-0.07228605119843722,-0.00040644754561034997,-0.018632886541982425,0.005753038470660639,-0.00685720866021645,-0.014203298024020242,-0.044767324639765065,-0.007337321953783624,0.01777279576028466,-0.01957155411782806,-0.019316899445238598,0.018944478139876528,0.0025028514691982267,-0.038901246838679404,-0.03384066254474085,-0.009909556547654262
ITGB3BP,0.012205754706350231,-0.02374195985562892,-0.0037314707500437972,0.00967820929483283,0.007526144957757942,0.03172696038754633,-0.04489812956302576,0.023579513028812255,0.010494121553654706,0.029211033262473277,-0.03092466626997145,-0.04538945157761696,-0.029972370489519815,0.07453035433568037,0.09545305668948845,-0.03799475921988387,0.0036435103769618636
AANAT,,0.003867075811161677,0.017681079876225046,,-0.027814785069055166,-0.03453490656506745,,-0.01650781174331707,-0.022340710714012883,-0.017210149829172745,-0.034856179955516466,,-0.019355616290293996,,0.06261601588111951,,0.05175912921062283
RELN,0.130523590361801,-0.032236481675193704,0.00611348336978114,-0.025255122439992537,-0.022398155529778235,-0.006311791320718535,-0.031223267583808962,0.06166753473782253,-0.049187033386922596,-0.024331181048923727,0.0035098939034494212,,0.05756995367537341,0.030966328156663333,,0.08861025765683347,
IL15,0.10666076996260726,-0.04565256417558912,0.09207287790889448,,0.027858667846338198,0.1036001946701496,-0.022708521460571094,-0.04305909989064457,-0.004077420801738305,0.06479731709559797,-0.009981913231183219,-0.008880077960541417,-0.017951439507215335,0.02187544097087666,0.01274603009330704,-0.004286653438117442,0.03844610478030825
UTS2,,,,,,,,-0.024694258401836262,,,,,,,,,
BSG,-0.06179033409704076,0.002139587418516399,-0.10228911288840023,0.018158435488312582,-0.01646780120428549,0.018153084025248848,-0.001622181171460197,0.03374328888891056,-0.01597754597651098,0.0009162418990702786,0.12551134982600848,-0.0032407851549682157,-0.08262189869474598,-0.06312069886596021,0.07766154235537669,-0.024472999521951776,0.04855811589819214
ADAMTS3,-0.06517623980723887,-0.0345714426356672,0.05736429802436629,,0.003551925864547836,0.049424566770710054,-0.02562026942358267,-0.050069029764158855,-0.06327685645977328,0.028867296332652677,-0.023955758831853975,-0.01596674817872573,-0.029829498771351354,,-0.03071015109400719,0.03681359855583076,0.042043770095031276
CD34,0.01056336026374105,-0.010273998347148825,-0.009797850427833984,0.0674867375245532,0.007760620877570273,-0.03156351549414571,-0.027418462582974836,0.05110955285691908,-0.04946827915104766,0.003741499618013309,-0.044309935728456026,-0.024568924093594544,-0.03239647308854457,0.011630813921503063,0.034111182983469664,0.00681984889917228,0.06014138418683867
CCL23,,,,,,,,-0.018783269321255867,,,,,,,,,
PLAT,0.027150203298224863,-0.019141221253648123,-0.028708260899044994,-0.03913928946497247,0.05221711363405632,0.06039778567674766,-0.08669626758593335,-0.014964990648510926,-0.03281126269073719,0.041226268581509254,0.06187518583613967,-0.044266426134781704,-0.017831961144480126,-0.044614897776923304,-0.06646278638241901,-0.06277661872660542,0.0008536885758589867
NTF3,,,,,,,,,,0.1012562208389382,,-0.030648460359563295,,,-0.05700383865334911,0.015271846181619532,
LTA,,,,,-0.027012263894490456,,,,-0.008853824811618081,,,,-0.01795144172314941,,,,0.09450499132991635
CKLF,-0.0020988983215671506,-0.02970464147544746,0.01878305915420536,0.025944579600401176,-0.006870133745801636,-0.07967224491927434,-0.05651821187479818,-0.059030170273236225,-0.013919119725197908,-0.009364517854221068,-0.09746614372840498,-0.007101999854483811,-0.03675988208443191,-0.0013395172672323956,-0.05517612819328525,0.011626595791383232,0.020325249060953208
APELA,,,,,,,,,,,,-0.03563418968195609,,,,,
CD24,0.19651193229176642,-0.09291938930044855,0.037143815146095806,-0.0627918053049374,0.001825433760324332,-0.07432367203166239,0.01584220545641842,-0.04445103413826314,-0.002847664736760584,-0.04836621403963492,-0.04631044834536449,0.027815838673278713,-0.016478393927416148,0.07358509626083415,-0.059795729147455505,0.07251750682626032,-0.02461594397948974
HSP90AA1,0.02809581266491007,0.08943189988147696,-0.042330684901255355,-0.03754512507323866,0.0437526827451984,0.00197469334319945,0.11500653236419586,0.04101118021035804,-0.0051194482046494445,0.030691932420237492,0.18625078037077614,0.019452718193908248,0.06101736757980789,-0.025960841444722695,0.01983503952556268,-0.007869693583202123,-0.03677525658790008
BMP4,-0.01934384879875427,0.12473114690573243,-0.04338621474627258,0.045842463213954666,-0.008038902644950495,-0.030805135610260496,-0.017977590457989235,0.07519567681687879,0.014098185617242735,0.010317871845056928,-0.04519912138827108,-0.008845989905353248,-0.015296482452468035,0.02850135938903769,-0.0498609753690276,-0.02383083474550887,0.025781210261477974
SCGB3A1,,,-0.020417516906279323,-0.001794991076882143,,0.01267754996977799,-0.015904983828032272,,,-0.014516929708038355,-0.004876754222022599,-0.00222772012590001,0.014317738883710018,0.015582254809741193,-0.028818727051135536,-0.00940429520184082,0.0060357619402248396
IGFBP4,0.06137650826578587,-0.04231518503307877,0.03242144475509207,0.14762054757308815,-0.01481082079455006,0.03675095333805595,-0.026945874052284942,0.029944913050402134,0.017093702501959525,-0.027989366490882555,-0.06347853426337635,-0.05233902789870336,0.012630624425908952,0.07353221673548023,-0.00694098572328419,-0.0659367315146176,0.056710843404716854
RSPO4,,-0.03171319459024353,,,-0.019704109028828746,0.06810654265408551,,,-0.02502492109830873,-0.01451692758460899,,,0.03158033304270262,0.1011925108469423,,-0.016830646003687517,0.00889148629855037
LEFTY2,0.03153181320574649,-0.019819165330372007,0.04816515748005039,0.0401835198925863,0.02456562948921649,0.05385352265942609,-0.06509248142608014,0.03197397628497796,-0.032334177674269673,-0.0159179886424491,-0.037075241958186886,-0.021856462349133163,0.03817432191299392,,-0.017310297782912924,0.043580478051021145,0.022328757747802002
PF4,,,-0.02117989629939454,,0.029362916848107448,,,,,,,,,,-0.013798752650792303,,0.10506912766522628
ANGPTL2,-0.01131776730418282,0.009405709296549583,0.007313587256563484,-0.06505086846195593,-0.03702837692088291,0.02333959403757694,-0.05858552584624114,-0.03568606200984924,0.04995859211488563,-0.04452801972387441,-0.023432427746565787,0.05901025802184702,-0.05634106133036955,-0.05361859494010431,-0.01147965138070802,-0.038262130149271094,0.033801463175145936
LRIG2,0.0378356178771988,-0.030790223097174958,0.045913397844685164,-0.007133922726907029,0.02835681408755584,0.016557931649036225,-0.03871278270685689,-0.03186321989775025,0.05622376678758194,0.023470306271127558,-0.007073256149383012,-0.027603065513549713,0.02819447765285451,-0.017800153652314934,0.048622311176869284,0.054220257223268765,0.07330932025501562
ICOSLG,0.035417578830358266,0.027755229234621735,0.036786128441939916,-0.04294639007625948,0.01489598341539006,0.017066941321625968,0.058701196075688,-0.017152821090403576,0.007694920172754779,-0.027550417636919216,-0.0668487263660982,-0.0020804014450441707,-0.039583397242716194,-0.036295888208855216,-0.06143263579356257,0.006400076493341149,-0.009752566231667557
WIF1,,0.06659337761725652,0.01680908134316644,0.0031380337886033572,,0.010846319865102913,0.06239506462607715,0.0657567615614571,-0.019311138879227297,-0.016814664957589497,0.07956429157977403,,0.05306229605146442,,,-0.015645715708879966,
NPPC,-0.012356878127223534,0.04019955201790407,0.015529633616891384,0.09120205949355802,-0.020757226598219523,-0.06992112897803067,-0.003910863874717804,-0.0249665260110457,0.02861047801287008,-0.020174976742109208,0.06000418427332066,,-0.036592077761169337,0.02188702401615268,-0.026108165083753628,0.0541597900882383,
LYZ,0.022122801648445975,-0.015699626275946853,0.035523774169819514,0.04022287878623162,-0.017923317287259856,0.023917761984740545,0.009435960397976197,0.007080009038957222,-0.008862163957966431,-0.026899916618469584,-0.14531085491743662,-0.013705330289680807,-0.03256042911835798,0.03328845054364017,0.028659778974457175,0.00222743948471453,0.04252714460855571
EREG,,,,0.03743867941110269,,0.009004457074872704,,,,,0.06384086186687392,0.11244030859684974,,,-0.04384612858152557,-0.02096285336347065,-0.03005200032630298
SPTAN1,0.0025152035291991968,-0.035264236912208986,-0.04909000183198878,-0.03607251770313226,-0.012187938122546317,-0.005214759192626955,0.03875502689180978,0.06154982878590126,0.012515833735565727,-0.03190832519959891,0.1493390887679198,-0.02582761549703012,0.06139868118483591,0.08081334585394792,-5.4327725042978655e-05,0.10756221166231245,-0.025627299399562056
PTH2,,,,,,,,,,,,,,,,-0.026766334139950953,
LIPC,-0.024064551452001162,-0.02815422606020373,0.02973750366248196,,0.027228068891034303,0.047335476396225984,-0.012582242960399063,-0.04317595037615091,-0.00864357589456109,,-0.052357357657884344,-0.03195664744160705,0.021098774474765596,-0.017825220791942886,,,0.05709457093286691
COL8A1,0.042150581173933326,-0.070314164076268,0.001936336029414253,-0.027999292361254778,-0.020856490508242235,0.0718177722383312,-0.06113783811965012,0.0350126154062815,-0.004792675762844956,-0.05525723448944251,-0.07560964625220427,-0.005580726500988127,-0.062485061447120405,0.04129697362267265,0.025196764643906303,-0.022010578272373595,0.05440686590745771
GSTM2,0.022415329405322638,0.09802270956313344,0.058524558286431556,-0.03731651886344113,-0.019078924152175932,0.044125506816602524,-0.01920311265662656,-0.02968830579762074,0.06187492488345868,-0.04290732930953878,0.0043562996274494475,-0.011672954453582638,0.03868778774613554,0.06010602574470817,0.010999109424697102,-0.015103092526334185,0.062481835480362555
SPX,0.00329876354408461,-0.012084850658874215,0.019020491323628118,,0.051358493554248215,-0.03748297016279186,0.048020669599373844,0.014011384297475164,0.0332923883057696,0.040008684329390885,0.05965481277711544,,0.06055933716236624,,0.02929508149823217,0.08847134770446885,0.03647850278629824
MFGE8,-0.017214747574038864,-0.02028961083753449,0.003968794834975717,0.06368749641802221,-0.03310864687626184,-0.02262794722678561,-0.011860032763406214,-0.028828895210510706,-0.03865814733847843,-0.010753582583831776,0.08680967964839033,-0.05350809046083698,-0.056277680313937574,0.10401795802456264,0.0014534218780588057,0.0029832534979114607,0.019625370298762105
TGFA,0.06305299587151875,0.03438663965340184,0.006753086687187408,0.031245217908108382,0.031725448522448886,-0.05094334014401271,0.0036869873679592716,0.003063747006770955,-0.010383868422214849,-0.04844326089397245,-0.17905195343018562,0.02241975773614615,-0.0708035990790093,-0.016477868945943157,-0.024933188190957422,-0.02227439166236971,0.015649836262753476
SLIT2,0.12246437307841242,0.019395666632754237,0.038193093222044346,-0.017817074654436636,-0.008922303099704628,0.03572517600471827,0.018728679481166417,0.05604988469446753,0.006527079966431398,-0.0127543564349822,0.07087229239018665,-0.04233029651586597,0.09149025339387573,-0.028706982397553368,-0.015380815491533613,0.05920601771567883,0.06142020426951981
PLTP,-0.030107465937397423,-0.05377678392519903,-0.008936951774170384,0.03252167199943231,-0.007172397158420701,0.09844596488613505,0.009854762063152948,-0.012137486221012796,-0.008945383979454345,-0.025268761403831993,-0.16220984500735475,-0.08006636637656454,-0.023041710319937233,0.041454368757053474,0.06851059089941028,-0.06457558504489651,0.013374752857111845
APOD,0.06446938758598551,0.0022338797480463543,-0.047831741845330934,-0.09942670280533501,0.0670189524005776,-0.046596016933905776,-0.0348196198089467,-0.10369396409060946,-0.00526064503577112,-0.03211712210236154,-0.025202880618579473,-0.010975280308755515,0.02219942128461709,0.07679219543154434,-0.05424826296811659,-0.04609897914162633,0.0405840118354879
B2M,0.060515646916106475,-0.060814217745404124,0.03937863869785955,0.03598537925589611,0.0014582383318267598,0.0821422720859558,-0.0917544536786608,-0.037886463364646475,-0.000629551559013755,-0.046075317790782964,-0.21596651595833802,-0.030956770727173975,-0.005209876443538973,0.061604508017598134,0.01978763022364662,-0.05576613477416822,0.003694106201996617
OMG,0.07647898205500393,0.014464153320940603,0.014625604769802795,-0.017021831423999073,-0.007638282163947659,-0.009250651026387429,-0.044053087014628255,-0.014424246602160625,-0.012826905140909346,0.048658549104815804,-0.041460519088938094,0.007610542616137967,0.06377923257129195,-0.04434593353872646,-0.04832914734732811,0.09399995559597435,0.02369075546004103
CXCL3,-0.015136506648371528,0.058055865367556005,0.004081744952246162,0.011567862968800293,-0.011439042550762843,-0.011611539991034703,,0.013273900634159563,-0.029350695810081873,0.04057499664313536,0.05443620891991883,-0.011373783962078873,-0.01292828880243104,,0.06541588770113305,-0.038757907145031495,0.02161634491883795
CXCL10,-0.07634358502644292,-0.0393758049316379,0.05251587279288797,,0.036281523679659027,0.042530275768471466,-0.031039976234038417,-0.03469924343792224,0.013712241193750052,0.011787991978879536,-0.06475551413679606,-0.022054872411985987,-0.02054461545962958,-0.009332105701482631,-0.018508127514652074,-0.022997528964617913,-0.031670463196145575
RSPO3,,,-0.0023386479891036125,-0.02242601838238153,0.02552258123124983,-0.04595586408007448,0.006811971163835788,0.01660438783303171,0.03116189860263247,-0.014569603015614335,0.028341576222754284,,0.036974366368088346,,-0.0043699380514800905,0.018204984749788714,-0.008919477320498411
CORT,-0.018796038993578644,0.03153673819007943,-0.008506561741567062,-0.029762381753833726,0.054742454568408684,-0.005464932240921633,0.02624496986790137,-0.013230050955135774,0.05287687232971748,-0.03944058524792537,0.018214786267717654,,0.05537457371330533,,-0.014439693312217568,0.13513433511972106,
NCAN,-0.001878050242652664,-0.07734373232549419,0.003427446616498799,0.005860041194141716,-0.05720515500886241,-0.07788692453172125,-0.0728973306805541,-0.07432133612329456,-0.06305617158642282,0.019750143672553344,0.05568957027572999,,-0.07399614064187163,-0.15621252882093123,-0.06033730814436871,0.07659855714975367,0.02486221016412146
PRG4,,-0.04852569911582597,0.03738058892755413,-0.004775514309784968,0.0397145295029769,0.013655949711970188,,-0.006786827369218787,-0.03198085571206495,,,,0.005704295690479174,,-0.02130665110542978,-0.040134692985295546,0.06344339270189739
ZG16B,,,-0.028312933549016213,,-0.012194202956646161,,,-0.025352342749051317,-0.0170967589963575,,,0.08155751798295931,,,,,-0.006101970721941814
TGM2,0.01922272344637829,-0.045426895131764,0.026870307766455312,0.07961963849131233,-0.008320686071934657,-0.01436478900869303,0.01242055927416078,0.02190444485380963,0.029269992616611947,-0.06132832481174605,0.036249240243357586,0.038756520683217374,0.14540680823481666,0.030321128514996746,0.057785040010639346,-0.01081776490184529,0.05668992395745075
VEGFC,0.02976297750125065,-0.034818157963500296,-0.0031902765957810683,-0.0026754179855497315,-0.030165178247777247,0.09036375303106464,0.03896041264945113,-0.030959237630191646,-0.010425282386519399,-0.016359662146026303,0.017954665794477558,-0.05831223056122677,0.04727316232098953,-0.06237811814484421,-0.028931882731500224,-0.0012196282141183877,-0.023597758634953506
WNT6,,-0.044158700155891566,-0.012095702528023748,-0.015415631788885857,-0.005690930730091036,-0.01203568618853386,-0.023291946026591313,-0.023091244652586475,-0.038048227345513996,,,-0.00709811259016214,0.010242887884252814,,0.006083250051100173,-0.022337013991709707,-0.026434271622315708
NRG4,,0.03597079481563,-0.018805251759880147,0.045025334040994895,0.0016603816939718213,0.03734873746395928,0.05269366883212419,-0.029248032483319374,0.0351581449529917,0.013304083038248034,0.03799424749834028,,-0.01880543499253201,-0.02591450973266746,,0.0434897968412499,0.10823824304973773
PMCH,,,0.0413349329883649,,-0.01868556495293344,,,,-0.025024919890585997,,,,,,-0.020259662232172262,-0.012796412833528368,-0.038973020660222533
COL9A1,0.07399515010885317,-0.05126753904945264,0.03648203619986708,-0.04813623080690023,-0.018083884926588543,0.028867774262129196,-0.04368992982252217,-0.04056185125299709,-0.015567037421949622,-0.021699100421489086,-0.022375333813368394,,-0.02142834610424551,0.008629912469934527,-0.010251784111989334,-0.011248871197606987,0.04089545461061957
GDF11,0.04672951358019145,-0.07909473908249176,-0.027381639994759843,-0.06046858174791886,-0.02683173167723095,-0.0033902666111969566,-0.0069622688502948525,-0.00178667161396072,0.010326647283501359,-0.027849930281988556,-0.0391920594922466,-0.07038596520254545,0.025639199435053474,0.02297998815783832,-0.035096040985871525,0.006921307336544408,0.04365430273751752
RAET1E,,,,,,,,,,,,,,,,,0.03383192717671533
IL24,,,,,,,,,,,,0.0034946599640925976,,,0.10781614394538068,,
SORBS1,0.05832138365800882,0.019038406191078595,0.0501045813092651,0.02813484105198958,0.05509396406023964,0.009658830375766913,0.030200328025979085,0.006093221037114878,-0.04458593894171408,-0.05491171786120222,0.023483495816196936,-0.016199257799583634,-0.02282800872337983,0.05322791455577498,0.03767669770827101,-0.05606028655687844,-0.014328753988956621
DLL1,0.09329331345562494,0.10152214741105199,-0.01279003794212205,0.004783973444533355,0.009375786105348493,-0.014120665155162313,-0.03058302232444989,0.017209461471131147,-0.0292092975283722,-0.0057961602579332545,-0.039321025684881765,0.019179272694713773,0.04588269528343054,0.003138935100668587,-0.053688013151193786,0.008059705403704341,0.07985021750297588
TLN1,0.06082546276834525,-0.006002739599060096,-0.031081594387548366,-0.004207261122884024,-0.024011123703608247,0.003003562254698841,0.0030476596576330776,-0.023838244220496012,-0.0038406186769636475,-0.03456969253548879,-0.13602791173786832,-0.04389428591169293,-0.05443763492243034,0.16180611894189886,0.05282554791434583,-0.06316365890149728,-0.007705971857756529
COL2A1,0.11122792031400673,-0.03368414971874188,-0.016049065236357074,,,0.0452285498052784,0.10507370902535561,-0.021673975078834253,,,,,-0.01312486735115496,,0.04198675995458852,-0.02695770517852749,-0.024896149638382544
SHH,,,,,-0.00803545599656485,0.030347373939396696,-0.027542930573303114,0.00597672860784237,-0.02468341558655883,-0.016668024289144684,,,0.09633294150030072,,0.12235910304252745,0.012786515851540364,0.07205650059803771
PON2,-0.002134294167970958,-0.09827967431388432,0.038255665019566426,-0.02872025252570525,0.029966567357796833,0.06330851586877664,-0.0013767661592409756,-0.07226577928509523,-0.02849520724012176,-0.010973268758298587,-0.10516466115668331,0.020615213406819814,-0.013348069568382418,-0.0981496503158427,-8.754930544837083e-05,-0.007792518113013689,-0.006692573558913889
ICAM5,,0.10300518236516265,-0.02920723006008662,-0.023971196881634908,-0.018495753461173447,-0.056945434723668156,0.06362906648532766,0.08486093421811905,0.05073111756084972,0.04750070298287777,0.14367458568072944,-0.017211275654234758,-0.010377863813882213,,-0.012790937030729846,0.023062643217347117,-0.0071275214598234705
HPX,0.07065700929989678,0.08138349060655571,0.056118075101201335,0.0009489932814678022,0.07988009568983744,-0.019157204103929897,-0.007623454977040211,-0.03156182324046803,-0.03355132990964109,0.025813462838765837,,-0.000527395093481916,-0.020917970348056526,0.05058817979388952,0.08432268461382401,-0.025152955318355635,0.028388775012175457
SFRP2,,0.021392745933938456,-0.001372262378628311,,-0.0037918661244355175,,-0.05506209203659918,0.026923074385371157,0.012187398491863738,-0.028487848544458145,-0.04894773744222105,-0.017943797208571016,-0.024573350892955256,,-0.010971281793410177,-0.014918371689732255,0.06021026707095815
CFC1,,,,,,,-0.03935769130733055,,0.09667563501281473,,-0.012060197913041165,,,,,,
CD70,,,-0.03383933384733819,,-0.016839089365858873,,,,-0.018027760448089118,,,-0.051398421760821454,,-0.05080918071694716,0.02226909410680456,-0.03236565986719652,0.07023024981695981
HP,0.02245943609325048,-0.014975507206450968,0.007215274520816607,-0.021812308941237202,0.010931707981917636,0.00906852866401603,,0.009768750458914302,-0.005038640136851664,-0.011126228032864772,-0.05553135628503115,,-0.00943794511400702,-0.06026560836796135,-0.008244326006791283,-0.00037451324649173315,0.009393453557418292
CXCL2,-0.007863509692436477,0.009572550818158432,0.010567554403482853,0.05106233379578657,-0.025559891138849187,0.03244130863426585,-0.03599871333471457,0.03022937598211887,0.0189328357441625,-0.0056461158285553556,-0.015163986225232365,-0.07450701236328856,0.028704348076794763,0.03783219325740627,0.05693120077164791,0.005068480148092505,0.009509375540038978
NPPB,,,-0.0007667614820158814,0.0008708559607641076,-0.055723015650888705,,,,-0.018840664641636747,,,,0.06964180391624007,,-0.006183509307973301,-0.019125561548563298,-0.025894541146815782
CCK,0.011334912287295737,0.03663983380686253,0.04606952063774739,0.031456026411717006,0.07210614336238468,-0.042558242660948334,0.09237850962091813,0.07084766239350088,0.017911862175131344,0.07890405820782419,0.18126362255450215,,0.09581670521700006,,-0.0474058539661037,0.11809483783010445,0.004605427495745448
SEMA6A,0.08225586257467327,-0.07868088135391625,-0.012141698796912957,-0.05103856382524543,0.0677764887638476,-0.011136758275593827,-0.06579392991400766,-0.047625574092361164,-0.0064442299717531295,-0.0016354076764852918,-0.12424666356872169,-0.020245345691497673,-0.06528283686612141,0.009854511549973875,-0.03075564360530138,0.03306988651270773,0.015755940307460005
IRAK4,-0.01657066064918679,0.0191990920234897,0.10138009443561052,-0.0179132361166001,0.06831556684994183,-0.013929407104147556,-0.04896224421682692,0.005960656789601616,0.006327653371253733,-0.007877683862107413,-0.01261477688582928,-0.02642436396076571,0.05070639259873585,-0.07952474507972165,-0.03253209520687003,-0.002428530421122294,0.0064135096030118076
GSTP1,0.017518622861507255,0.05466515702571968,-0.07350907012628283,-0.009690519718664432,-0.00283184844664003,0.09036329114728914,-0.056555329426793456,-0.05141647155546445,0.02803538703633745,0.02646180501256212,-0.16053493035914773,-0.09148450021306233,-0.008653685630109091,-0.06489266355630924,0.021895150171879884,-0.0050610835376383645,0.01871446954370371
VCAM1,0.07742891529110979,-0.022999605857714104,0.015624272939482849,-0.036521184883276346,0.049064687602843104,0.045116873084337435,-0.030062671757329365,-0.030663530061995577,0.04191499308816032,-0.046652800618990346,-0.09653932676251949,0.05419290413476927,-0.01111355549821811,0.05479329978371668,0.04038380527558605,-0.004983688961152683,0.1141832599206042
NXPH3,0.018519440292291866,0.05964999727511372,-0.007516372163915702,0.06610763310211269,0.02438118252007405,-0.00040116619348769066,1.683635473873224e-05,-0.018296078163875844,-0.01691570472288398,-0.008035202906775906,0.06001082319698774,0.026117661327810505,0.025857887696973,0.03617248788431683,-0.011529939313743723,-0.007570471739792151,0.06089809488257255
MTMR4,0.017334171782406056,0.040663882352139476,0.041046707009921975,-0.02846376443921844,-0.015151483246314518,-0.0005307245834494307,0.049407772489935484,0.02505694651917144,-0.0034807588918126763,0.027845850443378194,0.04842138676823893,-0.026627423785821884,0.065589079214138,-0.023074340739953302,0.005223156870888909,0.051541745493971385,0.04670296465494893
LAMC2,,0.1450326572836082,-0.020674595481117882,,-0.04425250825431905,,-0.031913734334667924,,-0.02371829484042065,,,0.08087877005994368,,-0.04681623848121611,-0.017832693844059687,-0.012420914611446841,-0.021686451134354332
IL10,-0.01952336253046681,-0.022272066402658264,-0.028361435480175883,0.09101432590627906,0.029448350327232253,0.06006705049235431,,0.026938324141619986,-0.02672604979862554,,-0.08216687716588138,-0.042899673916467845,0.07841896685012646,0.07021893968348987,-0.041619127621418575,-0.03093061845991235,0.023250661819416953
SEMA4D,0.06453981517760764,0.03130661793217573,-0.016474168558784336,-0.017676085661418577,-0.011642073589693616,0.06326967265936045,-0.0658909756875644,0.018789746220096448,0.008365289230181582,-0.02841468257849496,-0.10261627458311866,0.023638654767178007,0.05134654239059875,0.03961937139157911,-0.01087945111072345,0.04013175960198992,0.0397229453887007
TRH,0.14118169723896054,-0.007490214715342741,0.02119632674361315,-0.01732012239591921,0.020658194064697658,-0.02892048488941873,-0.03521499547343691,-0.009952966652906696,-0.03277778713454176,,0.06882976550420992,,0.03152382681037605,,0.0020087750569890233,-0.015373022317297553,-0.029003622610533384
SEMA6D,-0.04988142011460383,-0.07363379790903997,0.04206061385737375,-0.07201245138277748,0.0068130998039575,0.014060267920851386,-0.04609061284482999,-0.06874326866180189,-0.06400378214049764,0.04159107462594768,-0.007032231518731467,-0.0245005032780413,-0.002466590830821879,-0.04223943177404141,0.04996272904032941,0.03980614827001146,0.013632525900952841
CEL,,,,-0.019006752709405553,,-0.022041273832379082,,,,,,,,0.001204315613469959,-0.022169091276506944,-0.031442561182989444,-0.002549693032447341
PDCD1LG2,0.020485899935114762,-0.052087870596660216,0.04395468680345529,-0.02340226791727856,-0.006553708425911975,-0.037564011476472085,-0.022411441244246984,-0.019791536418259967,-0.04873150050182163,0.0030312550173890117,-0.012811433058084932,-0.03866493267790346,0.02861640005902355,0.02917929712320054,0.029236671262091434,0.021066232242139417,0.086370953566167
SPINT1,0.00033053784840073074,-0.0331176372235388,0.05441697170456483,0.00023964975439595741,0.012831434226484346,-0.030404578626447788,-0.0027638256956141628,0.021415184066164106,0.002040929873644401,0.0264444497782144,-0.03963968326929116,-0.01991208899680378,-0.02117920373623317,0.08668991456005724,0.05519109587717965,0.014319602521305392,0.037527997902498285
CTHRC1,0.0075715651246115664,-0.009660876148986634,-0.05265730200683705,-0.020349861664533894,-0.02795276950379471,-0.024084941527738567,-0.08598095103183533,0.03649390084087696,-0.02123536060604813,0.011228204632836579,-0.0017824269185628826,0.04427816342650719,-0.055397515789421155,0.06333460178840417,0.05783485710669099,-0.03201539052693399,0.044803994290564246
PODXL,0.014497343775710214,0.011456353559755423,0.00372454506003876,0.007110075547628148,0.005584299232425182,0.0818106609582498,-0.05369911945943619,0.0039712792887617535,-0.015489952812357943,0.0410056432430812,-0.0017860012317824387,-0.025652057822746738,-0.002198080830043601,0.0718591867129933,-0.008372032295731467,0.0010681188589487195,0.01551322601490054
JAM3,0.04139460154570815,-0.011668314043127037,0.0473934580241837,-0.038098527066902435,-0.028105726504575983,0.06887207908704415,-0.06544504579112805,-0.05353756800862575,-0.02675870298113115,0.013085338035224013,-0.11342540836098527,0.008981321479251788,-0.07229595528309753,-0.028039701094014807,0.07355982251647787,-0.033301893315991246,-0.016789126096917555
TGFB2,0.04747602968561868,-0.016483830329415496,0.10498140231555539,-0.03163635451070041,0.052649290413487794,0.0035426799856282296,0.06512019911514307,0.01905864077353212,0.0029380708272011918,-0.018679911677829245,-0.00564094103282651,-0.026522559887579154,-0.03159453138959299,0.013526412854600014,0.03392519723457205,0.013400275266825188,-0.0006915351021839805
COL18A1,0.0647247870978244,-0.016401027317596708,0.00866940537482316,-0.05926944288817192,-0.01971093647156627,-0.06976550776601222,-0.05831362042127179,0.004519550155704422,-0.0002847218663104007,-0.02774270483868294,-0.1506355685399394,-0.008268561323565512,0.025985738882155558,0.006438602676821798,0.009972743262090954,-0.08566494054523298,-0.004774008735226417
NODAL,-0.02730363075981715,,-0.0001441716725785271,,0.03473547344671191,0.005834262016829584,-0.06271686068948489,0.023383636455219816,,,,,-0.022160851853156117,0.017062872523276363,-0.0167729407591607,-0.014204247444002874,-0.007926133019963207
INHBB,-0.00845942063889596,-0.07453249677844762,0.06899920914605116,0.07061769004863351,0.011007827840034887,0.07314812739696534,-0.02100721682426296,0.03372640939152131,-0.004637197569164685,0.045007585952022866,-0.06910381002358766,0.05589941787260637,-0.045622017082479115,0.03541224862616095,0.04948603964414905,0.018415026067411626,0.03343265619278487
LCN1,,,-0.020674600132986044,,,,,-0.01902017033289165,,,,,,,-0.0158399210465669,,-0.029330041818156526
ARF4,0.03937050562405086,0.0012158063088599444,-0.005471182449997485,0.03389619870641933,0.03281823066368838,0.01556433440901384,-0.025534214317013047,-0.04883600897546941,-0.0005380656395311307,-0.01479072451980048,0.011565688397603819,-0.05312076658609557,0.027473446742310538,-0.03949324710371137,-0.07662776270133526,0.025663164231801823,-0.017948589580193294
CXCL14,0.04089274833815741,0.02059541829969342,0.04784993460641502,0.03456998155772871,0.035149237667736505,-0.021542418369229148,0.002397002748324349,0.04638001376291265,0.029994370285301088,-0.008383538775039915,0.035869201491809714,-0.02700322223726227,0.05246354132660619,-0.00023067046226777553,0.01860900455249361,-0.02997140579678375,0.017791017708378286
LIF,0.0939620169590094,-0.03949269215068584,-0.049335964603265975,0.055238132561680836,-0.026572100659660546,0.0017657398041854607,-0.028273836611985924,0.010744566933390818,0.01584416510213099,-0.017210149829172745,-0.053302714172673404,0.016449947815172946,-0.026696051588590057,-0.09541240316314924,0.021396835231957557,-0.04341038139942507,0.006217681728326655
IL17B,,-0.03591999396185825,,-0.01732012239591921,,,,0.054498819056011845,,,,0.02933679561001515,,-0.04470370121125507,0.03911889701150979,0.0032512322838955552,-0.0495425445590112
MMP1,,,0.06714667651258373,0.06333895966062644,,-0.028920478580498364,,,,,,-0.021917449397903792,,,-0.026108163391126506,-0.012796411820130773,-0.009921665413855562
MATN1,,-0.007530417981393854,0.024963510912464792,-0.02766884772855651,,,-0.02729530108815524,0.01941020406192986,-0.01907728861559193,,,-0.018181768794816335,-0.013124865717828019,0.17233079150551997,0.09110532951098481,-0.01821227863533342,-0.010543976554461206
ADAM28,-0.02887183446186143,-0.048433538142811844,0.03963216292088904,-0.011692402186250592,0.05847216517692977,0.09031360568050195,-0.02548325693078001,0.042934781085213286,0.004755590916283669,-0.0328723475965773,-0.09053802899338693,0.07320952180604168,-0.02001166221360388,0.022615064821671377,-0.03043160923921801,-0.011607663847512327,0.03946073195144648
TCN2,0.019771068056077562,0.009290569058173576,-0.007058190129879606,-0.038683836932899424,-0.0043991549934515985,-0.04592645655919644,-0.022096122051846658,-0.0009623572022999405,-0.0054732396560419,-0.01029958658969009,-0.06190978977824272,-0.048957700572305286,0.005072534743437955,-0.08785515189289281,0.059940264182676777,0.05219294904297541,0.055820161657928906
THPO,,,-0.014187165007912473,,0.040999763848704115,,-0.028467284289585823,0.01597371997479618,-0.03202951268098321,-0.017908795219281116,-0.0015368079853334598,,-0.013124867225514406,-0.02475736913622348,,-0.015798308163063705,0.042693388391492
CUBN,0.042623096908172044,-0.047972644601556584,-0.04864433926195361,-0.02716688839329062,0.0009472201793535661,-0.010484415951355982,-0.01492286592548175,-0.017438981728413627,-0.04454637960844388,0.024369163151320625,0.0001389502455121632,-0.04484982053416132,0.09724055087275503,0.03378011218437344,0.01721920431968941,0.03439158602132359,0.05580192407592262
TIMP3,-0.012692409603843302,-0.03439221492940254,-0.029812281520189336,0.04163858104764085,0.021447468657966935,-0.0010212868451104742,-0.0402642333537891,-0.014967243015671115,-0.01395749416288067,0.013357378427209288,0.09208467044706495,0.06141690120794546,0.04724476101172787,0.04770099589945261,0.04496874543116351,-0.03466770981756348,0.05503908279179515
PIGF,-0.053342593937445025,0.02636408632358658,-0.007104280038589737,0.008873430488854653,0.05325788352396897,0.06397510227285325,-0.03623883861548898,0.0026710559715937836,0.026811875338866937,-0.022094927528075604,-0.03364078143830727,0.02738695682028814,0.0014104030527103718,0.04323235799719606,-0.0354531744386962,-0.004067390586487273,0.09113723533194601
CRH,,,-0.024222755542827722,,0.005623329126898628,-0.029388477709939746,-0.023001976481947906,0.03772369574911836,0.0069534938299818825,-0.014770027399773018,0.053956411066813766,,0.05835246696452404,,0.01812179229979691,0.028568767803709635,0.018232234984754923
BDNF,,0.1397034021504214,0.011229103988212714,-0.0029097615214888715,-0.04212416258639884,-0.032661508874405255,0.0017472926845690587,0.031042199561645736,-0.0515871821067691,0.011435548002963834,-0.001837533898134858,-0.028045343902837642,-0.014781971447584353,,0.012410185303064723,0.05324801598195502,0.023226182876175148
CCL5,0.04077359540893891,0.003788999532758319,0.008132405508096784,,-0.015965607190767204,0.03409301232593723,0.001284803215819112,0.018900222622513202,0.026012366047846906,0.03579974527891055,-0.07013483628071004,-0.019925632588285044,-0.017805460730046362,-0.06695963113432664,-0.01591022767868313,-0.019350193271136736,0.004813551612758692
GAD1,0.055072103200671435,0.05986177815314912,0.027438214916031697,0.06967209975068686,0.04061030626432261,-0.06719432128386728,0.04098666266226781,0.07475486485843243,0.01066286267584944,0.019434623725787376,0.18954667273604717,0.0016629494440448757,0.06111421811243599,-0.05144859855434061,-0.0019718426185626184,0.02878040823063618,0.10290067372580859
COL14A1,-0.01991136454257962,-0.021000699696137243,-0.014477532570130541,0.02835156002420964,0.03293184466346802,0.028574162117930367,0.030940179284365946,0.04582150791064395,0.03335195647337744,-0.023458015507824927,-0.03517659659174198,-0.021526899821491696,0.02522947259519795,-0.019854586944313746,0.05461994261227508,-0.06347720377729724,0.09227097614318022
HLA-A,-0.05945198517295321,-0.10971587834734106,-0.016422609606667145,0.07760533458664716,0.0018395831940186142,0.036938823555986496,-0.11425598236033652,-0.027125193081175804,-0.03786672051112276,-0.04240014100528686,-0.17374606780085244,0.015114308486609444,-0.06153218437227577,0.027066742119820398,0.08814547529142597,-0.057798682945681086,-0.03534011172036152
CD5L,0.036587811084935924,,-0.010290206231524532,,,,,,,,-0.026266799777813737,,,,,,
FGF18,,,-0.02191721311230518,-0.017320103054337226,-0.025564221319025637,0.04619650040367505,0.09048226480001716,,0.03529190305344825,,,0.06396810223173077,,,0.007432602979033492,0.06109630809567072,-0.02900362493747127
ADM,0.06740288622905197,0.047176865163685015,0.011160453838568224,0.0410691198456226,-0.018335315677535782,0.049812392496626216,-0.041605429833971065,0.031357892503374424,-0.01470159231651039,0.002410959784319408,-0.03593779694340115,0.045690086120116075,-0.08041479741876471,0.0186109171327012,0.06861526705510668,-0.046850595669857824,-0.003063831464869857
CCL15,,,0.022936432959483083,,,,,,,0.06371491922268054,,,,,,,-0.025154841656623243
GNAI2,0.036069304053815164,-0.01737331639866168,-0.016232626627738094,-0.0168226993015361,0.0009142499123906484,0.022105685118736,-0.0627545570999976,-0.03546854910977364,-0.00938737004964822,-0.08390849091013249,-0.1255125112129493,-0.010613029359017851,-0.04904213432752214,0.017733705228260965,0.06170391763377814,-0.02212111688753524,0.0015062560993456165
HDC,,,,,,,,-0.04326422587984841,,-0.021801654709907567,,,,0.09063402622079704,,,0.0334022659154098
COL11A1,0.062490269673001766,,-0.0492436125808291,0.01983054229990874,-0.01396821890192233,0.05676584860687489,-0.07875687202890393,4.2902640097408546e-05,-0.00814054267682663,-0.010294082885269921,0.005816841339447372,-0.04541876493095625,-0.039546156085604196,,0.09111875078122712,-0.040193570756873444,0.0755660952647582
NUCB2,-0.007087335178674969,-0.04626378425490827,0.033587738175604336,0.07137666159808903,-0.0168744178300658,-0.004704915318518778,-0.051618276387453296,-0.001312544918903367,-0.026982525646034414,0.014030306311083368,0.006604594550325423,-0.017036241626195686,-0.011109700527590369,-0.058316855528699654,0.020384555571231425,-0.06041658831635891,0.046170087128114067
CXCL1,,-0.038620612232955445,-0.006968353297587266,0.042293611397584537,-0.021044621055330535,-0.050475476525533226,,-0.008685650182574915,-0.022522286073531027,-0.016297110566204132,-0.06124295321089843,-0.048714476004666094,0.06054662883484407,-0.05132163064979214,0.07428380108354074,-0.036502048393139946,0.07745538565305367
VCAN,-0.013801507093754233,-0.08569413304326724,0.00015499742799706057,-0.03543399262499886,0.019751151572512324,0.04508609094906752,-0.07279065150127173,-0.07198205121859326,0.00992690218760984,-0.01639406024312381,-0.061164852847123204,0.03566888132857132,-0.02262157052259152,-0.06739205016168148,-0.08049351990789554,-0.01925060339361704,0.039592851495370104
MMP7,,-0.09512452013776873,0.029610589812560862,,-0.0379393989795543,,-0.02827382867566012,-0.013883155760442944,-0.018840664538698378,0.0038643784635796884,-0.03249602745444494,-0.02657773643594797,0.012453451812168758,,0.0669079916164683,-0.07968174017506009,0.011280994470123719
PTPN6,0.015131705967015095,-0.0014882146738693072,-0.006937749683569654,-0.02172924254392152,-0.023473365148155744,0.018243129823426855,0.007255953213021253,-0.007891493402575285,-0.02681777883223259,-0.0012276051316686704,-0.028647244743853426,-0.021675463102380204,-0.03904258833379089,-0.05319475627406968,0.03414727399446727,0.0013955961545157399,0.03748353378484261
PTGS2,0.05032068692207442,0.024026822996120075,0.011106771628062305,0.051679175719210865,-0.007663295508367986,-0.0040745274296277055,-0.010155059581139917,0.04864932675988537,0.0008177156202335853,0.0017358164019755612,0.04864220728703573,-0.03936844452687594,-0.0302953955512528,0.005284226764624877,0.02795332131370907,0.011391316981386372,-0.03894451790777498
XCL1,-0.016853915284340548,,-0.026543804518585484,,-0.027814787695141775,0.09514255936298366,,,0.02402796245192591,,-0.0168593843442911,0.015467201076433044,,,,,
CD58,0.00284181826586742,-0.06158081082872023,0.005392129184136831,0.03815116622759344,-0.01358649469906026,0.02742484809163256,-0.05716914518904537,-0.04261941647177225,-0.027224694994727478,-0.0039075927885272674,-0.027787610259090524,0.014770089453279057,-0.0005976630282665428,0.037465308186925464,-0.01920143911619247,-0.046211714834807675,0.010017396584931127
TNFSF14,-0.011020339439391135,-0.028254460783763483,-0.013619070668909333,0.026921332313780626,0.03251402114320096,0.0670164487453926,,-0.02892759531472939,-0.0036948316839595045,-0.0159179886424491,-0.07975964384941202,,,,-0.026956661692851134,0.10054483734767886,0.0473430913186961
CNTN4,,0.053747677312139565,0.013115914901564692,-0.01991133547039174,-0.01907318092855727,-0.05772420629444554,0.014103878941028169,0.008149434270166548,-0.04669806021433007,0.07981167531036636,0.20207467138620092,,0.06120107958665944,,-0.03757447347578803,0.006317369805356065,0.034536330776888606
NTF4,,,,,0.05844120081486771,,,,,,,,,,,,
INSL3,,,0.03284988207448953,,-0.013486660090764982,,,,0.07172095698453647,,,,,,0.08956238572419346,-0.018477345312744618,0.1405874528270566
BTLA,,,,,-0.025583724006932124,0.06288589178980752,,,,-0.0057881706070023195,,,,,,,0.06644666724493638
MFNG,0.07643141857397771,0.004737233344508543,-0.04623974476127773,-0.04270682157485143,-0.0765036526923778,-0.014768909818558629,-0.058882981836212225,0.0028567884151170127,0.05978903442808528,0.00290675491922569,-0.07611720445201575,-0.04185752482596845,0.0384719464602615,-0.001150300289379474,0.04851524011783829,0.024202049426167927,0.051543950865574784
ICAM1,0.10462457576461852,-0.1067945614677104,0.02590730371057534,0.05713771686313733,0.05163774950052013,0.01711985900500486,-0.03274074841056063,0.020084866079928133,0.014809518159255132,-0.03283659137894709,-0.04285395451991688,0.010182527232252124,0.006584058213617216,-0.0505877678450758,0.09136614647577215,-0.021891172399177053,-0.039520194492021106
PROS1,-0.041788429750660494,-0.0668145222944165,0.07652415734641255,0.039715232237049355,0.0004734172693475159,0.06333056733713267,0.01891653142911152,-0.009263636176981801,-0.027702770605552766,-0.040990727160060955,-0.04305194766971951,-0.02728160798136379,-0.00036386724826324506,-0.02887075527790366,0.09077778940312475,-0.06976196889511259,0.05834410604681661
CLCF1,0.010396485681057666,-0.047090698640156116,0.000970381630256494,0.022100597907735522,-0.053685824841893715,0.030941315930178553,0.029344723100475593,-0.002486462542144396,-0.0424893530968634,-0.007635508652611507,-0.07474547471866251,0.01930623444173617,-0.03908657791726298,-0.018751123326801514,0.057988686094500884,-0.047980064608367005,0.041096054523061316
PSAP,0.023010566107977123,-0.03186862483831219,0.02392354865539346,0.029640988193361348,0.0006291270279579278,0.047853149547850894,0.04752561723856387,0.016268363474222617,0.0005283329645708055,-0.04764569250531513,-0.09230043929335092,0.033332614455948845,0.06114342237732708,0.0016391881441476207,0.06899131628163349,-0.08266001399957736,-0.013462947473983406
EFEMP1,0.00567135306742767,-0.1093677652761059,0.046191052616085145,0.08617663313247764,0.07813522284549734,0.08543175563127021,-0.06962983676565962,0.04299448033131899,-0.03757403515206557,-0.01251064164735866,-0.14993102194231225,0.019047593475566414,-0.009420070182773134,0.07006879965480672,0.06779616174227918,-0.0850488027113601,0.02291189038465523
C1QTNF1,0.007112148483869649,-0.04422128845171334,-0.015337442516283639,0.10459710431889067,0.0008494819652962098,0.024673794980480057,-0.044201553185358136,-0.02235746851314687,-0.006464751638651427,-0.03532555258243483,0.028425841487001335,-0.0601751416916902,-0.0893737417489551,0.0520504437497648,0.04393701181642325,-0.06806319613982817,-0.0470468845294422
ALB,0.0674788629280361,-0.04005786077071855,0.009459005209752059,,0.03385031401375281,-0.01417122082616649,0.000109833536018143,-0.02328724707457211,0.023095111558434932,-0.0020437713979266827,0.007277025985867096,0.02767800398120828,-0.015985069322271023,-0.029550003123013965,-0.010959441178119372,0.04218858323554643,0.0496517558954859
CCL13,,,,,,,,,,,,-0.032802954419884386,,,,-0.020726182288467714,
EFNA3,-0.02310992663079998,0.08181012532168114,0.06947730083216176,0.03180846890576094,-0.01099328802090765,0.02236576781553558,0.042709619489036045,0.0631637812858932,-0.0037350760078576997,0.059168361203305625,0.2178350081589584,0.009194589323204501,-0.02617645198604851,0.04722165069559206,0.02207351162482632,0.0383195812126701,-0.0006820858561989241
DRAXIN,0.042151382567080196,0.008493318725843768,0.007681355262867811,0.05392222934002935,-0.0023411358732304925,0.060292926334233866,-0.009569026826579036,0.012428260248422465,-0.035246293756826926,0.06373487087727185,0.08184788232398417,-0.005533019546102393,-0.023877223733333553,0.01775107283011353,0.020193503030466763,-0.006274199025393254,0.02505346562059597
RAET1L,,,6.170804495781826e-05,,,,,,,0.06391205573065029,,,,,-0.015839910665745922,0.010032043703177658,
NPTX2,0.053535831530321105,0.04729708012091304,0.019867779729089857,-0.049696371049073186,-0.0005781144858076859,-0.0678314406105413,0.027466486127844646,0.02784827781945686,0.0395063584659555,0.044046038470785726,-0.04242116581978908,-0.00028792206878467893,-0.0005470490304379787,,-0.007440674496331147,0.015582202078097929,-0.03903989540315158
FGF11,-0.06699676627503884,-0.060089258413155655,0.07151146729182134,0.004109109680733077,-0.011293989577673021,0.033780142973993094,-0.02953245568854831,-0.023059105778882875,0.035029177590519336,-0.00692205418261172,0.038752512979842495,0.0333936162650375,0.023268155807982856,0.018484618130733297,0.08201902734073158,-0.030127780981563677,0.03948221162823377
CD59,0.022718010699809645,-0.044506988528519593,0.07469739218854775,0.05215822701845109,0.006529545718961462,-0.08556234371843471,0.01350802538091088,0.009138030177460128,-0.002484783461081981,0.004370037289770795,-0.03358636542837305,0.030104980112876604,0.04263393386568256,-0.014561296218883768,0.03094387819944444,-0.05175184982266573,0.03278611536011724
COL9A2,-0.01234461466043593,-0.0749731059700802,-0.037674460478465496,0.08064146640997398,0.025548073693085895,0.014869227879004505,-0.018270557446914883,-0.029635565136522553,-0.026207199196267725,0.007404929461424472,-0.12490716256418927,-0.06844877468171726,-0.031058961772445118,0.02460566482737507,-0.03791021934203865,-0.007156562588153355,0.06976926500584882
DLL3,0.008344064607402434,0.045772300381055016,-0.008747901455295054,0.0023209592125878974,0.02497387170445904,0.056941679509251004,-0.0366628833826441,0.05179693219195006,0.01302107631187526,0.014659656396434491,0.16351590920150516,0.012951222509733403,0.05535616562967794,-0.019026136159078944,-0.06609739266753308,0.05610502982076407,-0.007246045550898629
FGF5,,,,,,,,-0.018543503750997368,,,0.05869024811704124,0.028686226196598795,,,,,-0.0009655442652382857
LIN7C,0.04306836967423642,-0.05588992605267204,0.0032394214812027917,-0.05945345544194497,0.020313724386243976,-0.023715609554015513,0.0764244738500142,-0.031756745765714245,0.040843654229015675,0.013594849116860678,0.07567006211585892,0.01028284864660791,-0.0065376397982575135,-0.08173023478158203,-0.04178434053372574,0.004529508005174372,-0.007140176749246681
GDF7,0.008768032618730178,-0.007702952753556729,0.06052242096284999,,0.030384307751816046,,-0.038632820051060064,-0.033171297898158106,-0.015412293423923685,-0.01591798802387603,0.14656257387843785,,,,-0.013578742857338531,-0.015021003226184241,0.0037657886241341974
PSPN,0.03417166135504748,-0.016877893989690362,0.07550563639918555,-0.00819711586407877,-0.020732492780410144,-0.04077536248186648,0.01186727453806452,-0.006636983718070954,-0.03164085539762992,-0.01481633343786228,0.1033168323975009,0.024284564253657395,0.016449322038648177,0.06713622904928612,0.0294756502085612,-0.03571829479431158,0.04366152403792277
ANGPT1,0.003437492840394147,0.004697484862679426,0.031044705535814225,-0.020349860465368564,-0.01803131370955232,0.022916326033046594,0.020555823462627004,-0.04502250044724272,-0.00648702328870952,0.017974197600776266,-0.05141979489812569,-0.06277132553328843,-0.020800523791466095,-0.08108923378530629,0.016460144930881063,0.02666116401315946,0.03953680958132433
PNOC,-0.024653426300911684,-0.021685355203067115,-0.020395883297704195,0.03993021294070687,0.04977818167010172,-0.040801849442151816,0.07479327380280937,0.10788863522790372,0.02079932015092955,0.046891759985047084,0.044324882229847366,0.005468471694973108,-0.012758625710898239,,-0.014439694883212196,0.06663213303016424,-0.023684342298633098
L1CAM,-0.00891819315203593,0.08955638026414968,0.04190317326292317,-0.010700045553767872,-0.03383907902866471,0.017029276850382174,0.0706884006201477,0.06106779048793817,0.10576327657636515,0.020012430379078947,0.13366572933721993,0.05931448696083244,0.1106748178327527,0.00241975232121006,0.0718414052725393,0.004180859201002641,-0.03341628218501658
APOA1,0.01664043707246967,0.0019769356012570294,0.01220072936853703,0.10154758501767898,-0.007956747460974974,-0.009158573163560594,0.029953571478621148,-0.02969954237450776,-0.028290077947326624,0.01960773298557361,0.0290194470996232,0.015658015323297025,-0.04060509129361895,-0.08194442462720228,0.0112821351737567,-0.02426163392379345,0.050533940709238195
PSEN1,-0.006477077183471519,0.0006008157460478302,0.054782960427377056,-0.019388450917598745,0.05187295859578853,0.00922344168566251,0.010761182956686969,-0.03229508642927918,0.030182297147581423,-0.01690139522841117,-0.06549143179594648,0.03148901203109446,-0.0032208535490556842,-0.012148753143444303,0.03522498590161859,0.049425967626042865,-0.020791775256710256
CALM2,0.06934082820978049,-0.016031442409805217,0.030890399648432786,-0.04118735200868402,0.06221829483886893,0.0010076481746503587,0.09509197037284452,0.04141333517588319,0.03703324305192635,0.026363108790851096,0.21929943733925117,-0.06714978872497263,0.07714434468919706,-0.057137498804422246,-0.034431574189240824,0.06570121524788403,0.03785759985312027
CLEC2B,0.022451125840679736,0.0040446508883278335,0.04364369451129225,0.08089546251787738,-0.0026834082873898432,-0.05258469567393064,-0.028761652018850527,-0.024517847696257332,0.0026435612502816045,-0.022689952984460224,-0.05244342016111191,0.050693192449990966,0.03250873277486462,-0.06424765684482119,0.05339473340998886,-0.03774104074677474,0.07009997483010123
NTNG1,-0.018857157571091066,0.04847092660290976,0.07341215282137163,,-0.0007759756906748884,0.04903546603072541,0.06681563794669294,-0.0669540225794535,0.0526141019149518,0.06193188006227934,-0.00823749509117673,-0.02820432064418022,0.1060832070568569,-0.04324478233444567,-0.02626515294417649,0.01932834858821012,0.056984827668300035
LRIG1,0.02028755745367006,-0.1290026884507942,0.08791340303476453,-0.021262015278652936,0.020429104404572584,0.0364446419312768,-0.059392641709672477,-0.02387236717390385,-0.03792205014426042,-0.0320008678082046,-0.10715397551741437,0.004985087347831892,-0.024184350681792605,-0.025838470468604532,-0.04705418187101311,0.07312942430691902,0.06100809473055393
CPAMD8,-0.015360981494963908,,-0.03721575852330513,,0.05063860380492061,-0.03904424483265539,0.05216158522511601,0.05282685536169296,0.04603362318935354,-0.029462879628026874,0.03450760789277135,,0.03280792881648332,-0.05574888956023577,-0.015254620973908525,,0.06966499441559468
GHRL,0.013153240566463605,,-0.049352863423752905,,-0.01784229997948727,0.011233699775110271,-0.0287516228375682,-0.03567460467189408,-0.028060609400555898,-0.014516929708038355,-0.034856180259729155,,0.14295032011347036,0.021298037325419225,,-0.0162481313362673,0.020571266645713914
NPY,-0.022535159363858023,0.014423395647157122,0.03587510859944315,-0.0160151228813652,0.0801584964380987,-0.011628688000464986,0.06789779356201218,-0.023912454673912238,-0.013939213583787772,-0.00077129188239738,0.07164460048503946,,0.01827046969047847,,0.07393057334889444,0.04618629361933698,0.026390631824422216
MMP2,-0.026505845271655944,0.016076805289937785,-0.041557600503285774,-0.06730469288002333,-0.027421421087074297,-0.05831614075207809,-0.055205983868007374,-0.022939246478875176,-0.021045176160752504,0.051629080198639786,-3.593385505938086e-05,0.0523087660292627,-0.03883756096065404,0.051220227746054836,-0.028302413590110397,-0.06594831325977207,0.029510767051712638
LHB,,,,,-0.004347569758477831,,,,,,,,,,,,
PPY,,,0.0930435185034973,,-0.0388361324823784,,,,0.04475412074308452,,,-0.015919667723226928,,,0.04803430851651271,-0.03294333250461535,0.026116728220114797
ALKAL2,-0.023003196190472138,-0.03699255680327851,-0.02494385071440942,,-0.001681227488203674,,-0.009552414032329563,-0.019020167250269532,0.006819941411692303,-0.008386687016857425,-0.0951106888699266,0.01124987111322336,-0.025640537120664917,,0.008350532748067725,0.06481386351342562,0.04149847487801509
CSF1,0.0501644071776339,-0.10036920958913602,0.039600763026851976,0.02862920126627713,-0.041788922309000956,0.06272778694947585,0.005235683681342175,-0.04590975551004943,-0.027243137574612157,-0.02074908516789659,-0.1357274093121337,-0.041871886436313364,-0.016097204194813655,-0.06399243691266092,0.021929980857315894,-0.03192838498459777,0.01843315322065053
SEMA4C,0.10331813905300323,-0.04466116647203905,0.03503605043342799,0.04147177524264109,0.028122946453305903,0.006550860477838543,-0.03445163642830192,-0.001948197462488083,-0.004110795582149699,-0.017719736561582673,0.03385696397599966,-0.06862588872207198,-0.01313440277845774,0.04426415598090012,-0.020198802369912495,-0.02344829116539174,0.08281680110944262
BMP8A,,,,,,,,,,,,,,,,,0.03846057756002765
ICAM2,0.02042502186013663,0.040359602130183456,0.0009697714236474829,-0.003862029945638514,0.049880557553379584,-0.053262811898361725,-0.046683322627424056,-0.06735655198733673,-0.011052202762992234,0.021703636025663327,0.011478516121676408,-0.014634972867421771,0.06413941902353201,0.12357628304455351,-0.025622774014992643,0.004574927292282184,0.06346657468192266
SYTL3,-0.04197690778133878,0.10267735664094983,0.013419798638785717,0.0029121727234537663,-0.01053536620906505,0.022863793766801144,0.004058906890304113,-0.0065816058487131,-0.029177534723212332,0.010408336099439298,-0.025400038941922404,-0.004926346050176777,-0.03163054482758554,0.05720644346627012,0.039429224250674196,-0.03838238797739185,0.017473368375665304
IL1A,-0.01784921361980728,0.05571022880256178,0.057673227881739224,0.09036073539067198,-0.0186554407743734,0.04549603186710369,-0.028657774339410372,0.009123420779010833,-0.019916505972859985,-0.026595123600662025,-0.07709104240969718,,0.0009735298548078342,-0.037851447825720204,-0.024088663697850145,-0.023959269704389816,-0.022854916708332965
HLA-G,,-0.0034812693514400363,0.033719024416727646,,0.024847615685099748,,0.05354906213768568,,,,,,,0.03349760070785961,0.1022885943426137,-0.0002701573371888885,
PGF,-0.05429558599303935,0.09480705745592134,-0.040943630058497556,0.11184073051444103,0.02848082715202349,-0.028664352881747276,-0.019873688085052948,-0.00780682927129956,-0.01338770714916941,0.005680772251303488,-0.023241508963152906,-0.04071790847203786,-0.03968279015725877,0.08045849884727622,-0.05181378121197366,-0.005663345737597202,0.05267946881053955
LGALS8,0.002419950652001581,0.07850783610780401,0.07580183168434042,0.04688919250632242,0.047318678403895933,0.05470036124024154,0.008799716576690821,0.019713616483095008,0.030999685620006035,-0.011751174141796272,-0.008562236672061442,-0.02956229145343458,0.036385656464181446,-0.007641754519220547,-0.0311997321745645,0.010313026452723568,0.04958991242845617
DKK3,0.040179423658233744,-0.03184423931586635,0.06688121783088162,0.03998541656682619,-0.014430066232634623,-0.04162115269439258,0.07638632403505805,0.02724342549866857,0.012279392180685772,0.04673800360468704,0.22661285273247186,-0.022870720240253634,0.04854623795314319,-0.07399281889833699,-0.027287020553770858,0.053514194112237304,0.04586492581740933
COL16A1,0.016366642065109554,-0.06781617047960987,0.048465253160226464,-0.02464348826479589,0.030175845642169043,0.054810139732338475,0.006983292975820508,-0.0446242682102344,-0.04384236880959092,-0.021377889327904038,-0.011977768800026422,-0.02570640017451209,-0.06656001917238769,0.0544796046096249,0.03739437775170532,0.027997806685047266,-0.011910996969135
TPH1,0.11766880658959103,-0.005132328585696497,-0.004963396262879205,-0.02378287911861621,0.03131911221922855,0.022062646834071907,-0.022110587504067542,-0.01994135531989076,0.0014353152229835391,,,,-0.0157952031295935,-0.04681617112159892,-0.020565349542228387,-0.042542144299813844,0.018148224821228867
TNC,0.00553304234245891,-0.05861134936702783,0.03899119705349558,0.029958962886602377,0.013201197305252979,0.021983507798709265,-0.0675117842606088,-0.02852770959800233,0.020338362333656625,-0.042421797992249544,-0.1491674043940659,0.006067303347725317,-0.0414028309666114,-0.062338390142990675,0.04788101101840301,-0.08572505501445646,0.0220832452944508
TNFSF9,-0.015360974204392162,0.09761277534808661,0.002538493014369221,-0.026485260731458713,-0.017065899773615417,0.0742977135555013,0.05799322074046966,0.018089069956399816,0.019827768703235382,-0.012325632033910593,-0.06769165250886132,0.0596336631976208,0.039376528503401,-0.04750186195266653,-0.022046252200132444,0.05605506860410647,0.0763555813685914
C4A,,,,,0.026945990700514882,,,,-0.020878100615148235,,0.018890622732721678,0.06121136201420937,-0.013884583577643776,,,-0.015179424432607919,-0.010145865971530606
CNTN2,0.05867260469134735,-0.0016742979635952305,-0.030626327782358388,-0.034822699861023154,-0.0022952442795297037,0.023618081956405218,0.006917161431857256,-0.08771525047972828,-0.009346226467095828,-0.03029898970573879,-0.1177083387708958,-0.019989537962489003,-0.01518655383409387,-0.1293947129341522,-0.003624842231184991,0.052044354135275375,-0.05336293380170132
F7,,,-0.020417517927141554,,,,0.020668571153843848,0.09951738574342762,,,,-0.01721128372780633,,,,-0.015021004678678548,
LUM,0.05050032033255338,-0.039814474721280045,0.0031984218750658136,-0.01370735904695053,-0.0014463932370538586,-0.051156199965033844,-0.0088612676784605,0.027879970520511107,-0.014030311481262377,-0.01233828348203067,0.009296709388390619,0.024556159081299937,-0.0265401988805437,-0.054770631181042154,0.0030558861696088546,-0.018249717332359198,-0.004472281182360185
IZUMO1,-0.01467789746801546,,,,,,,,,,,,,,,,
BTC,,,-0.018523557828002774,,0.039961772578195304,0.0205272295141013,,,,-0.016864551522221726,-0.0458373762076137,,,-0.05126819383536913,0.10326705606213019,-0.01453611614658756,-0.012384177971361475
APOC1,0.03596426733130243,0.05250583461751316,0.046083156670135635,-0.04519007517801772,0.05069526740379391,-0.04324175254280196,-0.08178235465565122,-0.036241674219754993,-0.021478740542282115,-0.025986310565924618,-0.18145108480211922,-0.08210021313408453,-0.02973794690208288,0.004167160905333853,-0.016728679638869395,0.00915996267676837,-0.026017198540940978
PKM,0.019396640452788223,-0.04381223329473133,0.03379931447098235,0.1050365272957571,-0.034350464039579975,0.042025461355646825,0.02832927114675068,0.008207380727627861,-0.03211490899230155,-0.005721948161333509,0.13625158376901697,0.016374926711044582,-0.01848818119905447,0.06512873278273036,0.12977473231204842,-0.08741061878414225,0.020540059924823172
TNF,,-0.056050028483526394,-0.03290039403284538,,0.010047551222454973,0.056137323882727415,-0.031569206147041375,0.038567670603306826,-0.003215668143179999,-0.021223430401266504,-0.07278632875988758,-0.02450050526855615,-0.03298215921824945,0.0028322468561483454,-0.01583991498608512,,0.09335557958756048
GNAS,-0.03729117283572851,-0.033296945605150945,-0.06971387890384795,0.05668960917579862,0.006809908508144458,-0.0583794075340914,0.09012479881802854,0.03591722325917168,-0.008361103088282322,-0.019223874306501982,0.2127316851278917,0.056796157289226344,-0.08482658861256707,-0.010402586308174235,-0.02771124077117868,-0.040565655719573074,-0.03060467967854771
BMP8B,0.06924269405956347,-0.023434755894032478,0.014037985761914592,-0.04034757892806461,-0.009820497876135497,0.06708835035894212,-0.0670754958444752,-0.00723793080436694,0.0011455351766835385,0.026485516310893478,-0.09459815314576075,0.00029170842260439636,-0.016471592845736006,-0.021874163690746906,0.002707245503544307,-0.03609345537967766,0.008968196019089705
LIPH,,-0.03872169174746428,-0.020928688443323223,0.012975384503375027,-4.9971922007108804e-05,,,,-0.016833456469061564,,,,,,-0.017660142481458602,0.025169907802369617,0.07645605378781807
CCL28,,0.0953318284266454,0.016948878566867123,,,,-0.041295710633982706,,-0.004265928014319859,0.05008563563198339,-0.0467185508434746,,-0.012526282227716625,,,,-0.02400491434260733
PTPN11,-0.018935871114343656,-0.029314824451005677,0.0362394210736183,0.031267114101806485,0.012431503542770736,-0.012687491413619821,-0.02923392103735241,-0.05287517452582761,-0.014057099332901633,-0.010471518164700828,0.0035569364437565473,-0.03221487350752639,-0.026747676901851477,0.057146469861780715,0.04062581509545308,0.04921981216888392,-0.000886171778440057
ADAM12,0.09546262564495157,-0.07802935649109737,0.025211086872855056,-0.00673647880208045,-0.04427315604216646,-0.006789577159497951,-0.0459757749361666,0.03214237614536713,-0.008819108829939156,-0.016108610499268965,-0.07269330453947406,0.0182908020576218,-0.030363914323630614,0.043037543019813954,0.03289212271175875,-0.016249356582168653,0.03508740531751726
EPO,,0.10758135742599263,0.021118523890690074,,0.031644485492115564,0.004296337252832603,,,0.07772706007897201,,,-0.015649163305642377,0.07104454319959883,0.05265490925512498,-0.01834140426310622,-0.014371076930025106,0.008175142620465576
EDN3,0.06474606709390388,-0.02383817706991715,-0.01732474104682167,0.031217164149369522,0.004745939287313864,-0.033261762043048274,-0.027542925068481234,0.07483671705733874,-0.027297677669894587,-0.007206086538942009,0.03637617306028798,,0.005154043301607827,,0.04864960920948392,-0.00241771207499709,-0.00010875735537954727
CCL22,,,,,,,,,0.03066845955784774,,,,,,-0.016772933363098465,-0.012609994394499852,0.014201171853996143
CCL2,0.09785708895784791,-0.08050642292665876,-0.007041287203830771,0.05735748428058117,0.002439525633473803,0.08293239177599453,-0.044602747354315575,0.03426296056103502,-0.04000546957366267,0.004039973274413112,-0.13920962226752653,-0.04535624803574514,0.0031830564197523957,0.015062564495150605,-0.0047449480565029895,-0.05873179146142222,0.032462414077535307
DSCAM,-0.006658375104623507,-0.04172639212014639,0.003262061713489724,0.008364461376474949,-0.03976195055367886,0.03005842204294924,0.02602458120359731,-0.005754087334830425,0.006003677215495271,-0.00771647529185704,0.09273998883059992,-0.023023436207704997,-0.00539706484332726,0.11628688301439011,-0.009803352001440564,-0.007293123038564912,0.024374750350882823
GPHA2,,,-0.023326086711743993,,,,,,,,,,,,,,
ANG,0.10391023037513845,0.04588963655946608,-0.001222448838535033,0.11943454865165956,-0.049206159788774434,0.05951391163665853,0.010111212922396352,-0.0181568872826867,-0.00664477607661331,-0.005866025379101832,0.00024998388833250685,-0.036828093677882465,-0.020506221440869377,0.05117644379181365,0.034624052527630615,-0.02505106655783721,0.061584529502075734
FBLN2,-0.020227037956744187,0.006608261518693527,0.03801226095579444,-0.023402259062762477,-0.0012002364924112788,-0.02737355528749778,-0.006083442250310394,0.06620044187751215,-0.019249225142001482,-0.05388500425755852,0.007921509969788782,-0.002949224557302021,-0.005155761235228804,,0.012144800805193165,0.0025093878277277467,0.0917138875690684
VTN,,0.026363003429463135,0.05750254639151778,0.08360900182719089,0.1277350567156294,-0.004993167613928515,-0.022110580273885492,0.08319429729472899,0.08698665643795124,-0.02222626879326589,,,-0.013124864754584213,-0.022774874988631316,0.11549001177828912,-0.01860860496034586,-0.0014735392790127155
VEGFA,0.011803318260856288,0.019234078427747013,0.03211588294335872,0.022595981697911514,-0.03440167990800404,0.04905467507227803,0.004594934081854755,0.05046375595375471,-0.029852023953256087,-0.03648559793236108,0.012059607382478032,0.12150526560123373,-0.07816025284457526,0.07557999638812142,0.07131639904519599,-0.11185892522996031,-0.07625581327187289
F10,,,,,,-0.03868714342135141,-0.02854076273843019,0.0016828938070744084,-0.004658937500923683,-0.011666664333457439,0.08292128014075785,-0.010233811424863994,,0.07024727293154061,-0.022027419973798684,0.004838055031527664,-0.026008482556798173
SERPINA1,-0.03507782429932871,0.08123618628831558,0.06992834357291405,-0.03670003940879275,-0.032014036416935926,0.08486400494830229,-0.02010031403468898,-0.017311574951591333,0.003147902915510795,0.0020015917514525296,-0.16097746586838915,0.03857635476185932,-0.024670063825729994,0.060296474227358184,0.008481706450482551,-0.06455084697307106,0.03566900634350317
VWF,-0.025455698272906817,0.027295600845842337,0.007103989120460863,0.015898081493089224,-0.0421592764801306,-0.03799130722579851,-0.044898500320763875,-0.0020732044001608657,-0.0052998216593746865,0.00031840061286045226,0.00608028365088278,-0.011077508096710117,0.08184310968242527,0.051544161842091964,-0.08296678508388863,0.012562699321758145,0.004645521223733149
GDNF,,,-0.03277584210769615,0.04282460151266616,-0.015354681795001148,,-0.034415975498795,,,,,-0.0019844551043387147,-0.015795204219092633,-0.06415268991917931,-0.04021138608746803,0.05374256853533547,
VASP,0.041827643809181116,0.015301817741156097,-0.024520551382605536,0.06188720630311644,0.02058697578614831,-0.012526117939533728,-0.03453198643268705,-0.04023259181337046,0.012419414229254817,-0.0017308469501058391,-0.014378048529873063,-0.025772746866571106,-0.05834277420991199,0.05817857490831416,0.027103483295256522,-0.02224468107924148,0.007120615442176288
ADAM15,0.04693986894501355,0.019908878312498685,-0.015916278522852947,0.05963301253201613,-0.004448238333688059,0.045652733891763164,-0.02860909807308121,-0.05370354278550441,0.011236512915717084,-0.02364918149661851,0.04101582216004977,0.005440405314820941,-0.015167976400331894,-0.044576634192242295,0.03403080183422201,-0.010134036087936487,0.04862093934709153
WNT2,,0.07103647872841022,0.0018941967413902642,-0.007690642954941384,,-0.03331894604479334,-0.0046266401776574005,0.014092399181041574,,-0.003614287969009799,-0.05291221009171423,,0.007891893987379541,,0.13812174093535687,-0.017255690671473416,0.09355507068569173
CALCB,,-0.03444387237863707,,0.005275478386281937,,-0.02732613181227712,-0.022411438451003438,0.0029898262703322693,,,0.011042594352027126,,,,-0.022309978110833593,-0.022448247297101945,
OLFM2,0.05642950343965584,-0.06009561200099343,0.03362325230850674,-0.006006148221034379,0.011470333317388108,-0.04736737025612345,-0.022755978590145092,0.04148810717468037,-0.06298513882786237,0.0068091704513141395,0.02816625398048784,-0.041191420494188696,0.015293960051784827,0.09260837998699809,0.008534238095596664,0.03473705227343209,0.027952197389628872
MFAP2,0.016978451862047397,0.09606015071111378,0.03576170739628463,,-0.054854422372407056,0.031277261578614206,-0.007262304201047437,0.015683684585738312,-0.012885790657076842,0.013713560730096962,-0.04118000284343942,-0.03805398221009152,-0.03697144533487809,0.003730697623831956,-0.0011316590832173795,0.007232092459441494,0.0797592258738579
HLA-C,-0.026676036104135582,-0.09479837001772413,-0.030873991832357516,0.09170196144185822,-0.011731439819188186,0.06502052634650704,-0.041583846181934565,0.003749724835319304,0.007882003195146715,-0.06918165128018094,-0.19126278686973244,0.013660867819012937,-0.06279439109708979,0.047418677351294014,0.07256207718699012,-0.09385584471366773,-0.018275809482036446
THBS1,0.08476461458455552,-0.06900541036287428,0.03576502598777773,0.019577655389088067,-0.01643637713454482,0.03639759625277053,-0.05582169232423385,0.06679777264222574,-0.009851010003778396,-0.030603157153687048,-0.07028408243674615,-0.007272001436964257,-0.026162181170308777,0.048123897673778934,-0.032901985283421684,-0.034457016787539735,-0.021905502505274534
HSPA4,-0.0708892286757034,-0.026854833509149672,-0.03040405187739897,0.03621949796721025,0.049698276245568926,-0.006152265059383579,0.016968618415324602,0.014516690208751886,0.007568196152539016,-0.04200338126439586,0.04587950801257763,-0.014778706689417312,0.006090938995711712,-0.06410010210999446,0.0033092720416959195,0.02418960544280168,-0.004431559383093275
LMAN1,-0.023720293520641863,0.05264489459273913,0.017509384722935662,0.03359053808017614,-0.0014936583878341154,-0.0041661878077364455,-0.04115548979402572,-0.053774723623918504,-0.0005081919677015501,0.02257917550644719,-0.033944803106281674,0.09569955236122768,-0.028423473305014584,0.004438208175313714,0.05782499398405131,0.0017303426509047183,0.03969038059435866
LYPD3,,,-0.0204142808502182,0.021803856272818542,-0.029564899462647693,0.03518399455049724,0.05349118705285904,-0.0024892012390192475,-0.0016041776184420027,-0.02208555809449889,0.010437430348838083,-0.01056160121121071,,0.005893771934881546,-0.03509848653415884,-0.022888570136295954,0.037294309699307276
APOE,-0.09216636236916442,-0.005820749503685636,-0.04122611751541813,-0.005492564678443438,0.03685962973395393,0.03355474873973173,-0.04602380921708585,-0.051330421391828,-0.028667716681376822,-0.0653266594924278,-0.20468234390248544,0.013043857961984056,0.043180132750372434,-0.04596436600937099,0.006633661578922328,0.007465823303484253,-0.05761070774950111
SOSTDC1,-0.015360980219113104,0.05556288962011707,0.06657285233145592,,,-0.036147934846301785,0.0009409191888875587,0.06719306296331448,0.0060234854448537435,-0.02568670700447124,0.18909374127340128,,0.004891526683156444,,-0.02243252856902613,0.014728567758410504,-0.01119112913818201
ANXA1,0.015518068808340137,-0.04424885620446941,0.01908677243843803,0.06855739994552049,0.04880618857541554,0.013962721553613276,-0.09544831414882375,-0.03518943740148374,-0.03659209137642143,-0.06338267855335562,-0.12848233798005518,-0.041046831696505866,-0.02415596621128989,0.007853458220848226,0.02046715868802205,-0.020632543402918868,-0.022421179653684002
WNT2B,0.09947320241570975,-0.006256733623940876,0.06752012220052293,0.06503138608769837,0.04416069449114447,0.004792519631552362,-0.0303525823681382,0.04231428433231231,0.044041194250539595,-0.02223475134761141,0.08668136687038341,0.03008851566799241,-0.025864572739394333,-0.02124651616642933,0.013159728403011826,0.048437855187219526,0.12208755559249633
AMH,,0.08045498617832007,-0.0389867691763826,0.07253243311244942,0.0038316783866194698,-0.03549493652315526,0.03516807549593414,0.0027111612928000395,-0.025386756468994836,0.012317768673679822,,0.08197977193911901,-0.037792872704864616,0.0004564690373793287,-0.01295551857950759,0.04100339437242609,0.005542991424614008
GDF10,,-0.014614271059299978,0.018807581916855064,,,-0.04343582914442165,0.09924793212043936,0.049650429175162866,-0.023718293570973988,-0.023303363779436443,0.058252578034473555,,0.07496519524158612,-0.04249858884171996,-0.028247518354680395,0.07019192695626773,0.04712921053190522
EFNB3,0.05674984889404708,-0.0024408561891144176,0.004844765874892134,0.07578046025078553,0.04102209920750483,0.013684206575817464,0.08049992503943462,0.08935121558514846,0.05188147281066089,-0.006299174782752001,0.1646739942191713,-0.027291397679744686,0.06954039101442508,0.12410902912170296,0.03455376983865485,-0.017054495291557843,0.05166858740808293
LTB,-0.04236785132638917,0.072384794221151,-0.006148222559021131,,-0.017538407369663694,-0.0401093389402933,-0.023001968835480197,0.022484528935987288,0.005157372192965531,-0.029642886181293432,-0.06350367275274597,-0.03094504542887983,-0.029357772704318573,0.06198432111438608,0.02107469029383869,-0.003976232508414606,0.0935193159525365
ANGPT2,0.012542297150864487,0.06517573916895508,-0.03795505498635143,0.03704971714310031,-0.0306700624395963,0.020064407990688572,-0.025572066184730173,-0.006641426253312853,-0.04439736235813248,-0.06441977683217304,0.02320598319217162,-0.0036116010665165573,-0.0076506663475016095,-0.00443909744273525,-0.040562166210672795,-0.08204062726105173,-0.0038896415785174532
NRTN,,,,,,,,,,,,,,,,-0.012796412833528368,
ADAM17,-0.0078089884749527935,-0.0073067732781102596,0.012945397668036577,0.0496714884091786,0.018245595081474632,-0.012585147796264753,-0.03274273057725862,0.03456283188115649,0.006786751847252085,-0.0054530968377541275,-0.003596346196500471,-0.027109460077567506,0.0044066217340745315,-0.009898759700851516,-0.004837446623263629,-0.046331361187365395,-0.011853708719939512
LRPAP1,-0.019162546764524016,-0.06080282173736472,0.0013013616379574902,0.05033656961233471,0.07624254771004,-0.016390342647776876,0.043350773472660614,0.008715026890066186,0.05380749324278414,0.06888793493788142,0.06846170511441584,0.008388970217144994,0.05052008911439274,-0.028737503189925122,-0.027016680401285402,0.0499002100614007,0.015165730221763533
NID1,-0.011352027360645755,0.025970490084696624,0.0106621974019113,0.0211016937139202,-0.018286239399451027,-0.0085863735287429,-0.05382973704249874,0.013271028835638113,-0.006881603780323213,-0.0147798199861945,-0.0666033060030712,0.008927915505237777,-0.0008229148026956475,0.0311879923168079,0.023706762634561628,-0.027446427136825508,0.030846061798093332
MST1,0.08821355005894123,-0.06400460122745585,0.047687516750742114,0.06215244608374134,0.052579666873648026,0.04984214001153997,0.004137697311024727,0.017762739035270227,0.06383004837499476,0.006352220299324233,0.029104946444076574,0.03578368866162431,-0.013421302432253705,0.02753812845864961,-0.010048985615924759,-0.01263404788634462,0.02366486280289082
CCL14,,,,,,,,,,,,0.08501605176517914,,,,,
IL13,,,,,,,,0.08366586899142434,,,,,0.09305565304510587,,,,
DCN,0.0027773030253213007,-0.025181655094502983,-0.000354742272375302,0.016067428898007677,-0.021397072679049636,-0.04423284074841846,-0.0016874904840440217,0.041884781128277336,-0.04478195480260891,-0.031060094496934188,0.04927979070503172,0.043422903900778936,0.04348312882460927,0.032868462907114926,-0.033517417005341534,-0.018897676237952177,0.02148941370743045
IGFL2,,,,,,,,,-0.007875558945227677,,,,,,-0.018173277911259614,,-0.038880555695018554
COL7A1,0.1416260744431108,0.06346497996110635,0.014938086763454893,0.07469948301685872,-0.000536610732142826,0.061382534680896605,-0.04338448016527652,0.002187522612261099,0.012888070960638546,0.04813108452951669,0.018770174182515465,-0.030088086457642396,-0.02745933006596021,0.015349561736323574,0.04501604883798522,-0.061010067474563695,0.04921169308425748
CALR,-0.026785169541705303,-0.04583097402178993,-0.01677436616324545,-0.007532794384560222,0.036964915506464094,0.09796345321925817,-0.06630946370866485,-0.03233561386621863,-0.010818220167871182,-0.008334239107223232,-0.09952591527373385,-0.04025659416884197,-0.07168336428806002,0.022165928697961818,0.017540773884083198,-0.07858953041808857,-0.00786129430095886
PIGA,-0.0027891972306218066,0.004857168088674656,0.07385972349931978,0.02405949568364687,-0.08927284349041596,0.08067705052480043,-0.03910479028337372,0.01374618668884038,0.0018293218680131825,0.05880688849723271,0.029102230247078177,0.05739081571906027,-0.01092134738764763,-0.04140141281802475,0.02750979823196324,-0.027651290197721116,0.02279523390541982
CD200,0.0033100094479475597,-0.040979695514037046,0.05080285583264243,-0.023353206422113745,0.0014583761623278072,-0.020744668084389965,0.12402671116277099,0.08144417345511511,0.020501808401707296,-0.004764470044892259,0.15617457858115497,0.014163469287332475,0.11386438627472316,-0.08325503053570957,-0.021458022536590963,0.046239727094380505,0.06231254676925504
GRP,,,0.04512143477129543,,,,-0.029915626971053794,,-0.03241578097013958,0.06481480490424897,-0.025560385380356033,,0.047563131177621724,,-0.01713291632453754,0.012477221027678806,-0.0021280903260430567
CDH1,0.04444246312442473,,-0.028477972308992634,,0.016393530196155026,,-0.03461727469507405,-0.014107128130358627,0.01063141975615999,,-0.028433287573941295,,-0.01218114861816204,0.058483489083557674,-0.005366172395364292,0.0331426882482797,0.013347720953966337
LPL,0.002693577650262945,-0.09976957209995531,0.06313858923554538,-0.046590465741393305,-0.04653132423337882,-0.01291558492731856,-0.028005907037580453,-0.060413814085895357,0.017672616216805413,-0.015319095213792733,0.02046155509050085,0.016598468379282343,0.022641515069397277,0.022117767650052068,0.00486249692728803,-0.03910216970017599,0.010086369541238404
SEMA5A,0.009946825818662939,-0.026589547847747315,0.05053901659863995,0.02024926595510673,0.030878944106865494,-0.015488559585298727,-0.025583519450903563,-0.06390154220460091,-0.028687253382351206,-0.02752346465722729,0.03939993406333566,0.025956062598314813,-0.035249814613601334,0.0847500657011681,-0.006219602997293492,-0.04720347733392013,-0.010631919081743081
SEMA7A,0.04257750140129431,0.016634347282903323,0.007142410253734503,-0.012424867835899448,0.014331967855934697,0.009834365205986177,0.0011255005837535123,0.005054042131086013,0.042733014446816535,-0.010934484995764082,0.0171209598542094,0.07686772618739704,-0.002089519902416782,0.024716937628725344,0.04783582917891786,0.02225969081417251,-0.04631302621261188
SEMA4G,0.007573350721642908,0.06096215237371016,0.04192920625829782,0.06662556357634157,0.040895464975083604,0.019112685751223338,-0.007695297613050503,-0.01842318871556244,-0.0010591860187657124,0.025311447505358763,-0.02026152078859636,-0.027749287221166555,0.03101701427954148,0.036731266857496066,-0.013673093495366941,0.0344277213961041,-0.0021346352034309853
SEMA3B,0.034646360272641,-0.01895628601135095,0.04112424639987545,0.027681208274553074,0.011766036469378406,0.02912621307481711,-0.004509391575110362,-0.07577805851642878,-0.04317106447520372,0.02657145351558684,-0.1469727216901014,-0.03783716554096851,-0.022674653416873206,-0.13672017853987514,0.04481333147256543,-0.03867404497248568,0.06758494707812952
RPH3A,-0.024971965228418207,-0.03359452001163417,0.07394275380681595,-0.033345578771133914,0.005798689507582084,-0.01728105078095045,0.006796847818847211,0.0577871878363964,-0.020778195942124593,-0.009426161070614836,0.15602055355692324,,-0.014235286374521693,,0.06763364732538293,0.007966102161078613,-0.05440892165881659
JAG2,0.10988378915760523,0.06550895741001672,0.011071276181391379,-0.013346239097481446,0.0542628958862208,-0.012821500712928778,0.06527217123731073,0.01090880791826725,0.0044201740451889635,-0.0014846983795122838,0.06485494002956246,-0.010253510217737067,0.12575485746998946,-0.09337138043182873,-0.009768528685081955,0.05819800971503795,0.010251282892391224
CGN,-0.028227969996233483,-0.0644958003486372,-0.007086041037342399,0.06184916116592716,0.004831987567022089,0.03969156494974586,-0.025848204907145955,0.0034073657395962765,-0.017449275645430102,-0.017562750743680765,0.008330460321165746,,-0.039546151603103284,-0.03384209567037562,-0.021964440905027298,-0.022968970418327052,0.0124097880463611
GDF15,0.054802795056588485,0.010931061884206653,-0.022851727154503586,0.005286763078410627,0.003625137087416565,0.01187702901844581,-0.017877731653826407,-0.0189242744290943,-0.010931311615584001,,-0.05509575012431641,0.14846504517448042,0.0070497177531160925,-0.025359759535140296,0.04686851699636131,0.004744031571650591,0.05553928639048251
SEMA4F,0.009295757247419024,0.006780357257479004,0.009606028605718844,0.017510968008690418,0.043821845767968645,-0.013935320054995742,0.024992518179440773,0.07333634416551012,-0.003526302187952281,0.054829072852592475,0.04408212280694872,-0.04844096479167645,0.017253993398188144,0.09214848677803843,-0.00576784742306667,0.03281704891107553,0.08775532837946051
NXPH1,0.07134568408957856,-0.004468553676142485,0.022506106769338445,-0.030093855340831102,0.005849881730897467,-0.02966312648408959,0.025235942946905596,-0.003369004558753312,-0.009076526126525954,0.017549290744878186,0.17554500597813988,,0.05793710418396413,-0.048906975943311816,-0.01924096510443265,-0.07057288216695477,0.0747795078372691
ARF1,-0.07773569139467429,0.07983179570860681,0.0179753656885798,0.0659752768117059,-0.04737936067228981,-0.06897798251891238,0.0793778805751373,0.033483551154316955,-0.007749449735311323,-0.011867012980187027,0.11530035899800509,-0.02134864597578011,-0.03218113260064362,-0.0069802974589414975,0.014562898505403092,-0.0029839575840199138,-0.005870137641394952
DSC3,,,0.1203983189281666,,,,,,,,,0.01083420302332608,,,,,0.03836111718640033
EBI3,-0.02740670701891685,-0.03963470369229464,0.007717759849021491,-0.015210873702515606,-0.006896635969665909,-0.0027307976500280636,-0.031711769642801604,0.061907422179134995,-0.026233688143144196,-0.026502495847695783,-0.05683233493085009,-0.02340060737585961,0.040388294866746104,-0.036693348445225725,-0.04878825277004944,-0.012944264189773336,0.058311403497443876
TIMP1,0.05445834172616325,-0.13362266981101525,-0.032016560676117384,0.10728109014978897,0.04498953050481767,0.08431379542782613,-0.04576599339102601,-0.0201450061684184,-0.027014173176319094,-0.07999993593108733,-0.15461354316379136,-0.027464479321352844,-0.08721701302925833,0.029750128774221937,0.06675689159128702,-0.08268640787221843,0.02927711088783892
SEMA3C,0.017075957284152708,0.13060008271333248,-0.030976820410524963,0.009015287783884532,0.06848538839328186,-0.049639603844004544,0.054725190156575655,-0.047547053554184794,-0.016539883430107722,-0.005941535430622584,-0.07617136176721365,-0.031995815614227,0.011985457546923988,-0.016734679650009285,0.05039533174502858,0.007493126779088843,0.020924790295578602
GNRH2,,,,,,,,,,,,,,,,,-0.027662242685733765
GAS6,0.029917084055263853,0.024463748114651507,-0.03933445746909845,0.02637911938632367,-0.03327846140943005,0.07702669077098727,-0.027139773900038827,0.05120701551663065,0.036267688304899036,-0.05569982182099439,0.023316368784556552,-0.06531924987173292,0.003882946692850666,-0.028427445884651854,-0.014287977170004181,0.05321546053574451,0.020220259119561716
MEPE,,-0.03329841508448678,-0.039813155656103924,0.07399614022723842,0.014185561664551856,-0.06221556876785184,0.00935920682723733,0.0909432992141689,-0.001285460360621873,-0.037262043873750955,0.1175059111934015,,-0.0062121243422895425,,0.07340707206352166,-0.02165934478699654,-0.01101591683059497
SERPINE1,0.018463607974819107,-0.012381880009735875,0.004700246158219521,0.05523287656655602,0.012945002894367138,0.011159962567936079,-0.031710171865375336,0.03213151905159968,0.011170461148246559,-0.026266105847943165,-0.044536547988228085,0.03521813993873098,-0.06777056890063801,0.05970267949004238,0.04860349518303861,-0.07651306645470633,-0.022419969402863244
RSPO2,-0.016229756477851246,0.06834747432704832,0.154580619829579,-0.017320119741188432,0.07392214469202539,-0.032248047539645386,0.038758831264937725,0.059403142177278066,0.025281022070575566,0.01332075163905941,0.13588789977543395,,0.0921467778457968,,0.09343949577528837,0.033247481833062614,0.043510798087457545
SHBG,0.18384150775889416,0.052719058688737754,-0.022865491765175713,,0.0004236857980403623,0.04659133756446636,-0.02469367450610508,-0.03981003849482275,0.06866616768840861,-0.008497961919734275,-0.035981663720472755,,-0.012728804770157646,-0.03080392228200951,0.08834474754976986,-0.020366674515151284,0.00470653372817065
LGALS3BP,-0.029059297827288222,-0.06711770459308553,-0.0005029407638256259,0.0016488903606963804,0.028673081284950264,0.09610617018393969,-0.01140024830286066,-0.036596873654059704,-0.04135032170597769,-0.021792311760162907,-0.18965085010570762,0.009073585813175605,-0.04122220471924217,-0.027087096078905127,0.12219469053057186,-0.016525303620708216,0.006678424122647743
LAMB1,0.011060837049381267,-0.06635841843959601,-0.010550698112892689,0.030577665693518826,0.0706534732332045,0.024153553121218637,-0.055345016243437226,0.01909947431022643,-0.011262769871585006,-0.006287611437617194,0.02958005969312494,-0.02943997387897165,-0.040048806476216114,-0.023425078660204154,0.012037896840653395,-0.08796679915540818,0.025411369558493678
SPTBN2,0.12377788038435987,0.12789206414196883,-0.012717930401821415,-0.030226862825237722,0.01622881912298297,-0.038763267721574006,0.015995913905763257,0.040895228061266074,0.038741054392645705,0.05789490436282003,0.13898051126964686,0.04046388169353862,0.05969115426467937,-0.0555026833832747,-0.029279880933054118,0.019196228381773244,0.0571021125399252
COL1A2,0.022020412333617994,-0.07562125530029096,-0.010495930310075997,0.016343837201191928,-0.01127951432171819,-0.03872295889511627,-0.08078847821331828,0.020148443336073116,-0.0036641893952125922,-0.05082735637544097,-0.03834442561113582,0.03727464247524981,-0.001741812758164061,0.004089743611923088,-0.009497959495297947,-0.056846871160200034,-0.011359009231919489
DEFB1,,,,,,0.057652282142147133,,,-0.018601160027081915,,,,,,,,-0.02187967595499238
CEACAM16,,,,,,,,,,,,,-0.02310566376307904,,,,
SCT,,,,,,,,,0.04978394648830916,,,,,,,,
WNT11,,,-0.025302082128175172,,-0.012742318462256428,,,0.06404446182192457,,0.0005179569844542168,,-0.022054872685708417,,,-0.038222000704623504,0.030814812430315305,0.06926068040950716
LGALS1,0.04129557079013652,0.01527172949355365,-0.0635328110552059,0.09857603340380926,-0.00906670293267571,-0.005659312469401547,-0.0772314287494361,0.041416526738895995,0.024947024709546805,0.022086535750160518,-0.1698080939015829,-0.03197792679801998,-0.05287908953326357,0.017571037782175832,0.07080408678407835,-0.08355396575808763,0.021930223411469715
BCAN,-0.061521934371072236,-0.04167638354329203,-0.02046062412624562,-0.11183085172885318,0.002878766507590651,0.002842345928564703,-0.07510167535069667,-0.0882116898496179,-0.0254414773057244,0.04752058021582856,0.13485944691711946,-0.022251662624860162,-0.029917690346645442,-0.03185085161622511,-0.059532124630364475,0.05031928786146247,0.0010489178974787854
ANOS1,0.016578331016522164,-0.03873362590571235,0.011225726338921275,-0.02103470341618223,0.02105431344235165,-0.02474846302653285,-0.01109560603427213,-0.0011203315379793982,0.025677848828797516,-0.03319515161837464,-0.05810039364477543,-0.03939421306918051,0.018350397177674758,0.08124032536391494,-0.016976849732833588,0.05700332988290875,0.05512947439383431
EDA,-0.02284810612453023,-0.0014502103965313717,9.850982352619036e-05,0.04635684682159554,0.01618329258425418,-0.0501530356828683,0.030578975920562575,-0.021881597603770925,-0.026788937126090807,-0.014868595682385003,-0.00609780820386056,-0.023212719950059614,0.032344034384871476,0.00914794003968259,-0.02824751673137765,-0.002411467180375213,0.06588842704332644
FGF22,,-0.0391486686883989,0.09364399598156531,,,-0.04893664685916385,-0.0030569093633426867,-0.016775092448099507,,0.035829938227062916,0.04379556792036647,,0.021586755112206736,,0.07839534766599054,0.04614052832928971,-0.039809539615572945
SHANK1,-0.019343847251101137,,-0.02530208050381278,,-0.019302480510503914,,0.019793423644031218,-0.01596043503782041,-0.025024918341550573,0.0684282171009071,-0.030899445495735835,,-0.017805457931401203,,-0.022027417660989698,0.07314616740899291,-0.017377809084269686
NPVF,,,,,,,,,,,,,,,-0.01564709373914986,,
RAET1G,,,,,,,,,,,,,,,,,0.07850894983603933
TGFB1,-0.050839123866968296,0.06203693285583397,-0.02487554174890614,0.05156217713289421,-0.03882083718249033,-0.05108376226382034,,0.08536417475683893,-0.012219818414682717,0.007136191212492265,-0.031122017632072507,-0.0007576847990311558,0.001516127031133888,0.04616924165524958,0.018175681594658287,-0.036960744042302304,-0.011300621809822445
MSTN,-0.03846576184223492,0.02805033674791654,0.09297377625943606,,0.06466040935331854,0.0227961498686733,-0.0028405982451272815,-0.01668016316549929,-0.0025223038386568367,0.020619989580294748,,,-0.01599818451016166,-0.005455924842140165,-0.03217952208550958,-0.02177354983113556,0.030270334265367013
WNT4,,0.05894153083418591,0.06255482654752662,-0.03731651575385336,,0.005688194273787345,0.016019722068099686,0.0015205456330919468,0.017833736150402617,0.042864555061567396,0.007600041509795138,,0.061244074786695024,,-0.027130331959606,-0.019215760255328382,0.0371671247971555
TNFSF4,-0.026490551523393746,-0.05462424625205861,0.024197594470236297,0.08774548423445146,-0.02868569130432514,0.0056347935795050975,-0.023861903646252625,-0.016985570669294802,-0.0011814479962968943,0.024682766033182493,-0.03159780474128075,-0.04801544632943846,0.02579597375785098,0.10596550339266893,0.0933926119983553,0.0217273214048651,0.06422229815169825
NTN1,0.13197363817666113,-0.11968689604066858,0.033349442752234414,0.0025133378535190827,0.006780585750829981,0.01571629119360038,-0.054083325237612515,-0.05263049754185083,-0.02749005607816444,-0.015481121076911838,-0.06365653406180016,-0.059744880159996426,-0.0529014658755199,-0.007277678508134218,-0.06925506965592275,-0.03662949002314304,0.03094117654011263
CXCL12,0.004089264119808392,0.022552148922662572,-0.011164680363055856,0.025039784136885103,0.058806029990983194,0.007977240019701425,-0.027638872670390023,0.08702265218339005,-0.04507888477396626,-0.0009475498915860645,0.010254098339593128,-0.01141487285230337,0.018539372744560755,-0.039956423412807474,0.031109094151656195,-0.043043176062154305,0.02574976015768366
GNRH1,-0.024943425873261076,0.055958568162239666,-0.011627230864463335,0.08577683036526229,0.04020606859885517,0.01824443955084499,-0.019884298274214594,0.08075097454921742,-0.010537070682228334,0.015123881302931899,-0.02729755509694537,-0.03771017154545817,-0.01858124809184536,0.12156842537495437,0.028095483780605945,-0.020245593015279964,0.01394646575875316
FGF8,,,,,,,0.012775594026539978,,,,,,,,-0.021597508239415922,-0.02589119585700557,
RIMS1,-0.02074073877881589,0.006786460415375291,-0.012675786393433053,-0.0232099172463913,0.001214370169643765,-0.06304405461869851,0.006722627261553815,0.0714113817094614,-0.03626825478155758,-0.02450422103289328,0.09304948640549655,,0.07712168918869806,-0.020719865202216158,-0.017797167593546697,0.0076996709290286375,0.034520853566193985
FGF14,-0.031093152279694843,0.0722948504385888,0.003398068978571065,0.018462695754433194,-0.008397842828557408,0.04269646762393474,0.016260923811515587,0.01588229804375461,0.004425848708526954,0.005352988913892431,0.07722313881792865,,0.027618571780968607,-0.01361686945778562,-0.07076538114477807,0.0027003188024917577,-0.03807372580504664
IGF1,0.0879152884128643,0.06730137096389154,-0.0403893559458522,-0.010043212022232498,0.04214911919219689,-0.009083667869235201,0.026772568637381595,0.0009346651819881509,0.015823559399925625,0.06699566985172617,-0.006993849972700087,0.018964700364455953,-0.02820003512949714,-0.014766305364495611,-0.008724603900038722,-0.00021959408530070764,0.014825775774953373
TNFSF10,-0.04613083595051244,0.0078170270829933,0.017921793445547996,0.050557534890201386,-0.021782001715109398,-0.0019404323460191371,-0.034620482930790016,-0.0351758915087206,-0.008648603386700286,-0.00796389242616096,-0.030214250758400056,0.024373987699261062,-0.02428033111807013,-0.04669683846550724,0.04815577573542633,-0.028796253364238154,0.11016166546851454
GDF5,0.09586296981952307,-0.06892491562975993,-0.026135909311812092,,,-0.01946313431706347,-0.02300197776897787,0.021975229525473292,,0.0072686249809083186,-0.05369078143063736,0.12970616714829641,-0.012928286932913674,,-0.03341013295061084,0.09894385220352445,-0.022342650991068982
CHAD,,,,-0.037184802053809606,,0.0653072962781024,-0.039357680474768945,,,0.01603108300229924,,,,,-0.037852906740864785,-0.02000149394153583,
RGMA,-0.0022657440394020793,-0.10209168599436903,0.012550933738638987,-0.022862953482731416,0.01107043881177529,0.07595306052939053,0.010139585077097299,0.007914559105887432,-0.08812947679747991,-0.06405412497178443,-0.030960748473159237,0.017049870443998534,-0.02618324533475904,0.031673239068526975,-0.013107617832604421,0.029609448087184447,0.026873759658637256
CLEC3A,,,,,,,,,,0.005376743918261176,,,,,,,
WNT16,0.015031658496062186,-0.028822483867947155,0.048117738706483414,0.012580194705007076,-0.03405955364649786,-0.029388464932509312,0.002253965623903682,0.00210286702929532,0.04766316532280653,-0.011843923267990018,0.02469911179691863,-0.06696839596013839,,,,-0.012796411144532505,-0.015436614281423849
CX3CL1,-0.004946226789313563,0.02958652139479051,0.02217790919628549,0.015235382060900771,0.0807536112314047,0.026456368027807844,0.03401701426428975,-0.031385685842178955,-0.018847241723820064,0.001400463106197327,0.14949210331438864,0.026549287138671836,0.07574284299914738,-0.021305454414220895,0.023726268724395195,-0.014211796727076453,0.05140413294114725
FGF1,0.07040890297558852,-0.0678461961542935,0.08373816443494726,-0.028259422545396724,0.0017677252733311927,0.012153480235544642,0.05769229202031763,-0.06046683301138873,-0.0024647367404889335,0.009499108500766006,-0.0981425121170085,-0.00812050782719172,-0.0189018740346387,0.07244086238113137,-0.02112747088943131,0.06692628097065227,-0.014426685586207941
ALOX5AP,0.028905081453970534,0.027262333470157104,0.022425116024795466,-0.013045949393659816,0.020883409754509304,0.07132468464203304,-0.01528191658059313,-0.05109864678474797,0.05379776435491203,0.012446545733603306,-0.22380315960502434,-0.009454030252428816,-0.008978208083601585,0.017130419118397876,0.06155936070593132,-0.06446751361726026,-0.06321412339236444
IL1RN,-0.014443449853978663,0.03905416576532326,0.018366452410604448,0.051122397663205754,-0.04195829305971384,-0.008724388022099608,-0.02729529811915937,0.07190176928256914,0.05554579774181211,,-0.07325153054401233,0.07669373324089958,-0.013884580521289942,-0.005867236930037801,-0.03904388168970281,-0.035654524950710316,0.027376640797800805
PCSK9,,,,,,,,,,,,-0.030502881039346796,,,-0.01659024242749754,-0.012420916001472897,
NPW,,0.03956531371861783,,0.09373212069908671,0.01222272256539343,-0.023430768594241216,-0.014573505330242402,,-0.02371829580630412,,,-0.022832725834838502,-0.015464399695302658,0.011436455897038185,0.010398577249635653,-0.0236054771085136,0.03978254783660011
CXCL9,-0.002587683442717079,-0.03562147547236085,0.030382235464956015,,0.004455566359533462,-0.022358022180598885,,0.054413961266409926,0.013250084732543532,0.00794331419326125,-0.037075241958186886,-0.02944936097596828,,0.03211836464666541,,,0.024420982717673893
ANGPTL4,-0.021193475182683254,0.01235943317712951,0.0035602623814146197,0.07337707661174575,-0.018861987102446076,0.041580851244606414,-0.04987402948256451,0.04474648250528352,0.02777528383645284,0.021034676498429845,-0.0538177200627808,0.034596945260141815,-0.05172780024710877,0.03538114093243904,0.10013996836907288,-0.06378248854630915,0.005475267724664163
CCL11,,,,,,,,,,,,-0.02302343241773409,,,,,
UCN2,,,,0.044335561665560894,-0.01429301570569519,,,-0.018055007090546915,-0.026788938778237813,,,-0.00047463617643159797,,,0.08883826260166804,-0.0140355733000328,
OBP2A,,,,,,,,,,,,0.06598197661332796,,,,,0.07106813312671165
COL4A3,,-0.05072860565504952,-0.0342565911672837,-0.021220546626767853,0.05427780421380558,-0.006586384414404912,,,0.01780424496820789,-0.0294628786698403,,,0.0016928628957158986,,-0.013128197332312968,0.017574744247135184,0.07037227744203405
NRG3,-0.026214922057462262,0.00826425428517206,0.035138164528730656,-0.01830150526336197,-0.010679783306915554,0.08060292510721642,0.03311930270374082,0.026279894419913675,-0.03678251362856016,0.022784666612848135,0.1330746756069775,,-0.015869053614324006,0.04825032400834234,0.008708816504137077,0.05040598409630655,0.03378727327001198
IL23A,,0.08035061853103977,-0.02792858177755926,0.030739906710511165,0.03141018514488253,0.028932062281680864,,0.046499659179091116,,,,,-0.021304097012021673,-0.016415935327880837,-0.021306647945353113,,-0.030949545847788525
COLQ,-0.026353033125900798,-0.019055535831089876,0.014557833783093915,-0.0043801435156206915,-0.008625928080051058,0.028115245573688767,0.049668258002278566,0.0872342431670302,0.004228650965227137,-0.04961014231081022,-0.023627998585517212,-0.016813493548728877,0.009148340125483644,0.04759396404873829,0.04627441034865747,-0.025447969612356104,0.0001712839532183905
SCGB1A1,,,,,,,,,,,,,,,-0.020863670443823142,-0.014371076843523421,
TNFSF12,0.01997164160527299,0.07412157217212424,-0.050441485979299934,0.05144710934250373,0.04101703919179514,-0.03685608858550295,0.06164027532608339,0.030554300877024952,0.015887104511025957,-0.04895731745053163,-0.057918821794323554,-0.028724546271694587,0.12683570344645553,0.1402096202316403,0.05304908601311348,0.026257443326544637,0.036024052828519094
DKK2,,-0.03919166406527525,0.018372847131442202,,-0.026334934990193945,0.06180320807742375,-0.03899667533177183,0.05626020785488775,-0.017304342226127336,-0.014092138047924313,-0.014595317752963532,-0.025675882646981108,,,,-0.016541740990730514,0.025700395065130503
FYN,-0.04683997797699606,-0.10652201453375498,0.032045891588672784,-0.049606840606326495,0.02082898079647229,-0.02301077101520078,-0.05883087551589633,0.025639925457547733,-0.016396990880731627,0.01390029839102326,0.027273979384390714,0.031229888333346462,-0.0021724692427280055,0.08442388111903995,-0.061907191591704075,0.04668398861247935,0.02861302182437143
ACE,0.04290966013137974,0.01753194529202867,-0.03227268512116689,0.05323192392045019,-0.04503473813615028,-0.016445134069762835,-0.09343574895497497,-0.003326664962371805,-0.00656533247831313,0.059777483543604785,0.02564721736638228,0.025395024939417886,-0.031511672451567926,0.07805193806851193,-0.0783180482656577,0.010876702617756234,0.018217296526947205
IL18,0.061215445773781824,0.00046738929778349217,0.014171262896650218,0.03979806484933504,-0.002402965286863582,-0.0028381376843745585,-0.016673048220632414,-0.029957284058670843,-0.033148405289361374,-0.03371097217927669,-0.11285676775989283,-0.04099027404041464,0.06083572860331431,-0.029370724060741517,0.0007417311809489176,-0.01858919974902484,0.04056321286717062
PPBP,,,,,,0.07867336033846915,,,,,,0.028565750875598147,,,-0.019639073608692454,,
CCL27,-0.016440253874085715,0.09880195337725678,0.05712805907522879,-0.026657045475796982,-0.05605267137359439,-0.005583354596333922,,-0.013109620937217088,0.02979645611804927,-0.014516929708038355,-0.032685362898140925,,-0.037289970968152966,-0.005355098793410635,-0.0345094483732696,8.307447510309539e-05,0.010884417934740707
SERPING1,-0.04120183742731555,-0.06286167266264854,0.01435329207611114,0.1396288444570548,0.014898123770291786,0.08665430134217321,-0.04220246010877928,0.00670527026621502,-0.01820037935861204,-0.0157114274405328,-0.12422170358658022,0.0031679817575990853,-0.020291008339532866,-0.001887873142371007,0.039346331450572126,0.010962837519035712,0.028548831787311258
AZGP1,-0.010181141065237263,2.115909144313478e-05,0.05812908424704851,0.023224664805478707,-0.06336805656089473,0.07229215052042275,-0.0022079741231765264,0.04634606074864446,-0.009090898185298528,-0.028010509355518094,-0.03647783441432739,,-0.04968637781860292,,0.04618415629114399,-0.054979099195963936,0.02462646097547472
INHA,0.11941740191494074,0.013005438591721373,0.055186523455276866,0.008116863232084666,-0.01987485941636975,0.021652256743774755,0.006528912530651454,0.044070646861704574,-0.006595077583813487,-0.022366169493889976,0.03316905920744604,-0.03167037960702613,-0.022695895522643714,-0.008808632825975445,0.03222216143626189,0.0025799124766504988,0.03876373939447209
SEMA3G,-0.006287176548846878,0.04413503653845866,-0.03792442133470995,,0.004804748316018902,-0.018848758073658285,-0.031853834244421064,-0.03471858902986246,0.019015067137776533,0.015651048820894634,0.017603917602106226,-0.010266995768477049,-0.019759111870255027,0.0017332833271247645,,-0.020606954162711074,0.005112913246195184
OXT,,,,,,,,,,,,,,,,-0.012034280082980017,
COL6A1,-0.030066356871706897,-0.06208692893460115,-0.024045136874289563,0.10729670717020116,0.02930369749199853,0.01444339950256254,-0.0522714897614944,-0.021994010996389143,-0.029838863399687474,0.02340761571509855,-0.004021668961711705,0.08807441839568798,-0.07293373833269955,0.041799876916317244,0.08630178654094885,-0.07372511691806949,0.004196544286045978
FGF17,,0.017340342128363734,-0.033834628768865886,-0.003177619029953305,-0.02421022744047701,-0.014180054064067407,-0.038081508181085376,-0.02659119592311256,-0.03190054774146653,-0.01789737600450846,0.04696312537593503,-0.019552287124333347,-0.018382972891989265,,0.07410296880212477,0.09633885401968435,-0.027317300931714913
TNFSF8,-0.017849213540518334,-0.025467887763286772,,,-0.02415695164054369,0.006176267877422524,,0.16175524468089286,-0.02193222232077097,,,,,,-0.018173275956012525,-0.012796412833528368,0.033792549716100614
FGF20,0.03369404769415588,,0.0032997733657127905,,0.009919360978280946,-0.04397951741813218,-0.00725304707563498,0.02959516007889094,0.021479201174632093,-0.029133228621490925,0.015518959863007649,,-0.016905265201393977,-0.033033601097556924,-0.013058999226355306,0.12568556168324088,0.06274753611009692
ICAM3,-0.0253776697742776,0.017310968817318067,0.07380326378161907,0.07984934377574666,-0.006004244839533145,-0.04200764802886338,0.02568495288920136,-0.04842228280978575,0.05514264097752127,0.018055439582771223,-0.03517428694602893,-0.018177916677764548,-0.015655820397133903,-0.0009947234297072954,-0.003367610943875773,0.06643025804106306,0.02370587614965195
LAMA4,0.00023706927476380987,0.002467925627003045,-0.006781010365095314,0.011955996354980444,-0.03512991842538329,0.03747792671341717,-0.06895602719476798,0.02266757420935678,-0.002627415284467324,0.030693985423601706,-0.06233200941598406,-0.04507195436934859,0.012918797276561133,0.06600980849067656,0.00755601812380102,-0.0793234380266834,-0.010495642383057585
INHBE,,0.15463333382309669,,,,,,,,,,0.012020282202062672,,,,,
DLL4,0.0696863162804583,-0.03438636537189611,-0.029535555137319584,0.02845866604005459,0.007009198403901764,-0.003126565019057353,-0.04169955557297369,-0.022754721606052967,0.018484862672364787,-0.02032781429389048,-0.0085417082767876,0.07376484129010796,0.0008079287765505391,0.035999856758439946,-0.02128429435707321,-0.02946103971158752,0.028808399809332728
SEMA3A,0.06831902548542981,0.06753153122776184,0.005555696939734131,-0.022487214151125284,-0.04535887677630682,-0.01539014916723025,-0.007062368353578562,-0.039685900784117795,0.005568446218854206,0.019709210155242962,0.13532763698606823,-0.008653851782328501,0.07362547963881974,,0.024236297735732177,0.009316849506257814,0.0028911263802758706
RLN2,,,,-0.018774379010243793,-0.014697396727709682,-0.03898287194324784,-0.02803214460612072,0.04813909210389094,-0.022340707123906824,-0.01755791755073251,-0.04801329756365953,,-0.013318672245164087,,,-0.01403557175231474,0.02413942248421255
C5,0.08600569804546515,-0.017218330449135604,-0.05945662560066673,0.003042606949337913,-0.03703761355841851,0.0022890494440533683,-0.03651693289684887,0.009401783116411369,0.019408348079877794,-0.024254519389091313,-0.030077288075627304,-0.024747244995265358,0.02648944407020762,-0.019917335712724037,0.06413012645572576,-0.03191199504343744,0.03617242415482275
COMP,,,,,,,,,,,,-0.026743952529135157,,,,,0.007259936114741993
EDN2,,0.08991852384459993,-0.02092869165669786,,,0.01758828989084595,,-0.02328725186004251,-0.00661945428384801,,,0.07023578508504431,-0.01390029279902566,,,,
C1QA,0.03126339821706008,-0.0036654326529727476,-0.050552667590733145,0.0010676938472661615,-0.010275185606666501,0.03301023606757429,-0.03074286421441667,-0.024764509471774967,-0.005237488963137865,-0.028625226514875788,-0.1746894182340224,-0.05045409476482769,0.005916360850604787,0.03129465730271967,-0.0012277138248481033,-0.08651973161231295,-0.0035283886887652145
UTS2B,-0.015136503691584216,-0.027387574028926977,0.0836562192967727,,-0.013904687266537777,-0.0014834617672121362,-0.02086613884031419,,-0.019311138879227297,-0.03541964774550283,,,,-0.048848096439533084,,,-0.03359220136491664
COL9A3,0.046787318735403774,-0.09235455813785401,-0.008217781474346928,-0.015870993988282657,0.03184986124072937,0.009504424039318159,-0.015130901403792562,-0.02031911468832639,-0.04666371465632194,0.03969540030832502,-0.033725223484103645,-0.038448305171161865,-0.04209138426577534,0.008249677610123069,0.04001311607900599,-0.055318452345677664,0.004789947700827554
DLK1,,,,,0.02937126601977652,-0.027470801814163438,-0.045845627559067355,,0.003447833640700664,,,-0.02851997681798569,,,,,
HGF,0.032423111722353744,0.02991583770123522,-0.010674603397918286,0.021233851854917205,0.0445293050228099,0.008721679187767008,-0.04490275812012885,0.03531299179845183,-0.03700652786556818,-0.03203969785073254,-0.07996953500096819,0.08825229348426969,-0.020285818040476408,-0.051362974072108165,0.05466005369048825,-0.010754954368310367,0.03488236790553151
GIP,,,,,,,,,,,,0.04050109733277188,,,,,
P4HB,0.02669041733062376,-0.011527817839175093,-0.015678478594870742,0.06352465076164628,-0.01875631070121532,-0.006585990459082448,-0.05567290391605851,-0.03381497709265022,-0.0011951826748563936,0.05224591131278042,-0.09464867161847314,-0.008166237960225323,-0.053832950336123606,-0.00405653117811055,0.06308604804514067,-0.11909028519928591,0.004447249390714972
ADCYAP1,0.1476004251177723,,-0.033372487759955445,-0.02613882117984201,0.02007958320208256,-0.04859379072125958,0.015470804978193016,0.06876657771464045,0.050182702183059084,-0.027781286923724457,-0.01389371971202577,,0.08497342559508797,0.01816129338764723,-0.042096739107151324,0.03722702537990486,0.039231659952030366
GREM1,0.07215489860290637,0.09667065644337555,-0.0177896307195989,,-0.02887700027438803,-0.020469897558599064,0.0004026433578111648,-0.04512363260409959,0.024761292816003262,-0.016483559362385703,-0.11758148137737057,-0.02330419345744269,-0.0302431310746285,-0.06778795660893729,0.006928151768162155,0.05754959312723418,0.02845857714053444
EGF,0.0323155668727266,0.004054587025946195,0.047089910866030656,,0.023662313419179907,0.04164355774168814,-0.022452812373696,-0.010968251034767815,-0.016925576133665337,-0.02526601694834962,-0.053302718320519714,-0.023400599491957007,-0.024241457509243506,0.027456417401900565,-0.01583991852636571,-0.017671403457580163,0.013333320711426061
VEGFB,-0.036130089137454136,-0.051291196426507125,0.04600190766266808,0.08669533140042807,-0.05239890579813369,0.06437148864246221,-0.019340267220260676,-0.06068370291297145,-0.022013979998568224,-0.002663640432183655,0.05003328886579705,0.006373535427362762,-0.0508827188552575,0.08964065263430536,0.043966854619582135,0.003753048160868516,-0.007416523533062291
FARP2,0.029397676354125123,-0.09010779986017613,-0.04232415075356429,-0.06974504420500079,-0.01706489688179151,0.041504782365637975,-0.05423676182778291,-0.03578229120254197,0.010059077091320428,-0.04368442730219928,0.005231035986862543,-0.009802346820625541,-0.023750860946598402,-0.04125425454117406,-0.04368724418193164,-0.014438981726747733,0.03517061159771389
BMP3,,,,,,,0.06582516495346775,,,-0.024442496037106288,-0.04068778469126514,,,,,,
IHH,,,,,,,,,,0.015889817664233342,,,,,-0.019322074703143125,-0.013864957751393178,
LAMA2,-0.024092000092540596,0.006711034679212398,-0.005604878240341815,0.08597684594512553,-0.011408783614534287,0.019024273521503796,-0.02239490545309983,-0.017146392444945383,-0.04688624364139951,0.019051323121449738,0.024399398440272314,0.005665310153067055,-0.024058278968862052,0.05195624056354129,-0.019944280464885066,-0.043625586731404056,0.02430508971494319
SERPINC1,,,,,,,,,0.032474746623003446,,,,,,-0.015839919786466154,-0.013692343643888123,
NRG1,,0.09413604866537022,0.04466195537316423,0.043887087165792475,0.008989894054344584,-0.03640202523496359,0.0644731730278844,0.018459530698137466,0.003997558851716422,0.0886282704507657,0.21804233585088356,0.035819987824295976,-0.013570640346187856,0.1151543300403028,0.01600496040907046,0.006160110467316635,-0.03097901828764461
SPINK1,,-0.007570593590562253,0.0030451053743594005,0.08870468484443828,-0.022720504407761917,-0.03952902717870979,,,,,,-0.005254477494678505,-0.013318672245164087,,0.04068371379741598,-0.016830645704790335,-0.043947673905695706
EFEMP2,-0.029621552788800878,-0.10089565499851973,-0.025930284379502025,0.07178357931979032,0.015758262236717054,0.03587536482825594,-0.02857814832067859,-0.024469295964399573,-0.05710655710685406,-0.013127607508704623,-0.08471672904183715,-0.03249558758343915,-0.03747738545879518,0.01911147169205336,0.08455811090805637,-0.0591844812629883,0.04139504222271211
SELPLG,-0.014634586124334714,-0.019341699714613518,0.006096899345286879,0.08884659931329426,-0.029626737614365285,-0.007216722943531383,0.02833870269923599,-0.059565091555628426,-0.041479046379319325,-0.01916154612906655,-0.06059982988903015,-0.0026489021545002436,0.026058237187929698,-0.003252771089975363,-0.025831066153270837,-0.03409026758569764,0.03235795984403315
GDF6,,0.04194219373255998,0.0033490147670270608,0.06636728546781426,0.04841370231111479,,0.00447404002984789,0.013128750076726417,,,,,,,-0.018524605038768648,0.1475740714905111,
HLA-E,-0.07719672264648868,0.02159172309252093,-0.0001330411530781767,-0.006422858492740751,0.059967894477919614,0.05914473571380197,-0.03208452798259918,-0.06337580410681348,-0.04010087832245813,-0.04210912365232422,-0.1972955133519889,0.019078752890917046,-0.06064203371958196,0.055695920401335565,-0.01220286844098314,-0.049425070946159305,0.011123385267867525
PTN,-0.03280957491413895,-0.13077811704614098,0.05016266661400005,-0.01994475852608284,0.03638562405567731,0.07340072239166698,-0.07147530135438213,-0.033241352532813635,-0.04777216739836519,-0.030492494089422225,-0.045140438582085156,-0.04510537557080258,-0.046088339355709135,-0.04411236175505258,0.03408474223514697,-0.07081410676121878,0.0006561455904241031
CD274,-0.0354779704439503,-0.004221110819669452,0.011366843640755278,-0.01633670683909893,0.0006131121754615635,0.04059704015369185,-0.038727386581732866,-0.006561118855583393,-0.022649424134123228,-0.019552567656491063,0.012029936084996924,0.03989809292904864,-0.021919087978792776,0.03680780497798627,0.08430637680374034,-0.012113119118626035,0.007881604591375302
FGF10,,,,,,,,,,-0.018416367090187347,,,,,,,
CD14,-0.005659531528384661,-0.03281710878482444,0.008598514137510819,0.026173667350188976,-0.010885534877431331,0.06640383340155959,-0.03543139358516813,-0.038231550539730506,-0.04643309218300839,-0.021626263055687423,-0.15711001231654786,-0.015543323597347884,-0.03172796947100869,0.008074125940723438,0.03339412101480229,-0.06235267579653161,-0.008736053784977884
SFTPD,,0.032526789054343364,0.01631107659584434,,,0.009545818418318692,0.09307832320748342,,-0.02719275213895803,-0.0013834217769118666,,,-0.007763937779781083,-0.04199306518030736,0.07402714153178995,0.01881546554645663,0.04650579223140885
SLIT1,0.05294823841512016,-0.00915794190543326,0.014667416493361595,-0.0764109216724142,0.020442387983422464,-0.01543651304679457,0.05632126195612682,0.011167777919570382,0.00887519026000494,0.08186490109639637,0.1253776612849549,0.10326102234141904,-0.013366587121460235,0.06620351664187181,0.019691114161463606,0.030744153967080537,0.02843515034509503
LPA,,,,,,,0.014268390510090868,,,,,,,,,,
CNTF,-0.01952336253046681,,,,-0.026334932282956483,0.006494371324196672,,0.04327719965854096,-0.017611963663882076,-0.016483557937750554,-0.04589400512122955,,-0.015464399767001995,,,-0.0140355733000328,
