,UKF251,UKF259,UKF260,UKF304,ZH8812bulk
IGFL3,,,,,-0.017771228792480855
BMP1,-0.008425799320351198,0.0062005481082371815,-0.04509773133754057,0.08287463055293263,0.004424837310347207
NDP,0.031072821482975847,0.014766154902939877,-0.044739788496555556,0.0060897785440499255,0.013856218027358431
TNFSF18,0.009176786553908682,,,,-0.01832715457307641
RTN4,0.009261980126398905,-0.02583500128145577,-0.0534861982085778,-0.016534113911398002,-0.03108330768880539
HEBP1,0.040786044618021926,-0.04231212509837951,-0.08281831347073974,-0.020630329844167256,0.03513141822785599
WNT7B,0.04708376256421666,-0.0069326247035489015,0.010954755898053895,,-0.03832356284052925
PTMA,0.03393013150839983,0.012394974807702169,0.08299103258756586,0.0706716137887701,-0.026453793419238373
CEACAM1,0.0060567508596748865,-0.0053593527573564176,-0.014122258267238053,,-0.02633420774067586
PDAP1,-0.010512887740425286,0.027815589179537616,0.024609064318405448,-0.0062516726633797355,-0.0027098463413411725
QDPR,0.003584840993872133,0.008487822729535839,-0.0329973001411584,0.02245887000457063,-0.052987924652770656
POMC,0.046845721785889735,-0.010476987787649831,-0.028417323154242134,0.0204685224384134,-0.003849242091294811
CCL18,,,,0.02851607765532949,
CCL17,,-0.01932048539992305,,,-0.023430338607515384
VEGFD,0.006885586308930395,-0.007849016473474208,-0.01351137713383585,-0.01982359752528034,-0.024711775472878193
TNFSF13,,-0.01332683842363543,,,-0.005044821728131835
WNT5A,-0.08180224959811565,0.041466998712825026,-0.025161411164863583,-0.01031115169750867,0.0707948205831267
CXCL8,-0.020519558568508744,0.0016833565563002721,0.11490170429079201,-0.01738751257895137,-0.033265973369274
GRN,-0.06122205077103546,0.021724982181458963,0.0008798634192498633,0.033973516790781075,-0.01567879957855535
MIA,-0.003082966281562342,-0.017851526573770413,0.012603715425589293,,0.033058810637264506
COL4A4,0.06166639886658945,-0.040113197530322844,-0.03098125044521987,,-0.036092542632849174
TAC1,0.02234760165596016,0.07035890738430689,-0.0315508639854865,0.06486124093728296,
RARRES2,0.09502279932672521,0.012281753234979627,0.021359413387138166,-0.004930572238935773,0.0013617554637470623
FGF7,0.09634844591182873,0.08645073842690112,0.06310125881403246,-0.04602211457889731,0.023929633503394925
HBEGF,-0.0027610851145107385,0.003863073155055774,0.09299738885359496,0.01578669575920884,-0.010761449476286822
CSF3,,-0.010481052694316166,0.14939615122387787,,
PI3,,0.028347238345537696,0.08831652356872774,,0.05728012538961321
PCSK1N,0.05349711597232659,0.014647160003198914,-0.00014350724344892835,-0.02629971647777351,0.04100432237759412
NTS,,,0.0023393063600350593,-0.01784760564943843,
SFRP1,0.013235248863252762,-0.01685787031756356,-0.01541414145227377,0.01175525526504348,0.026924200786087947
CXCL13,0.002263252132205428,,-0.01527561102678178,,
MICA,0.03498592400402549,0.034341706737832496,-0.03221582943760387,-0.0380572913002481,-0.07090352379963041
TG,-0.020805342089483345,-0.018192312936582782,0.030855141935097592,,
ADA,0.020261430519199465,-0.034220876879474095,-0.039040609678558366,0.02388687776837109,0.14853212910130148
LAMC3,0.02163878017548927,0.035452682466080604,-0.05809472422370005,0.0015995360154002583,-0.02522316281298235
CCL7,,-0.01315301318675783,0.08789856559255887,,
NGF,,-0.030136912648160534,0.16832698480680913,-0.017847617400902578,
TNFSF15,,-0.01464652348908917,0.08350081216819222,,
HMGB1,0.014574608605981787,0.025207255724081314,-0.07319826335416714,0.05782436691568967,0.019656655361226207
ITGB3BP,0.014487751477911225,0.009644403758281732,0.0018208732395309094,-0.021172097691960906,0.05764022360982695
AANAT,,-0.013326839845983528,-0.013511379062661078,-0.016779385138056973,0.006668462112883729
RELN,-0.027084550520139035,0.029006583039330704,-0.04067561108802772,-0.023097257262491122,-0.036244499828732145
IL15,0.05686964217029537,-0.03132405124757327,-0.006242395579738313,-0.03438470808748942,0.04093704428004342
BSG,-0.006124899524697113,0.03149859848601775,0.005290360399018441,0.024911884762997372,0.0401657018827654
ADAMTS3,-0.0011378714769535744,0.01923439865014719,-0.0320533604205895,-0.026943749809251724,0.09928076987833068
CD34,0.043620581979638036,-0.015044694406487773,-0.05788217700578196,-0.06252624114134309,0.0028879084924861693
PLAT,0.011844402933035153,0.08621497518765887,0.037438634763126956,-0.016357458921710914,0.015567414758935994
LTA,-0.015300313968833305,-0.016857869528925887,,,
CKLF,-0.0017636115884923542,0.023192178605376347,-0.024537392084212843,0.11165978015515082,0.03015758224790405
CD24,-0.009107009291936918,0.025768354492134923,-0.07503598836712763,0.017555325727492774,-0.0363025877605294
HSP90AA1,-0.02565168865360439,0.01843460814586647,-0.078016835338422,-0.021487567750896174,-0.0938596380262044
BMP4,-0.01621922971145526,-0.0014179051111586462,-0.026221013678234917,0.05488489701773706,-0.04121017140917771
SCGB3A1,,,-0.016090384489256725,-0.01073154540348307,
IGFBP4,0.0287614016802306,-0.029376526312734328,0.056306097847045364,0.0358093295900977,-0.011188999335906244
RSPO4,-0.02473470498662859,-0.025803922819543208,-0.018570919275675234,,
LEFTY2,-0.015488225103390553,-0.0299701899045319,-0.02882493741244111,-0.017847617400902578,0.06874380366288937
PF4,-0.013917715084821682,0.03817323274868643,,,
ANGPTL2,-0.04987127284196597,0.023299370267864244,-0.0033065725288878734,0.02602631744903546,0.05181905042688091
LRIG2,0.054070822036515434,-0.056165696431933546,-0.011978847476802905,0.04745355100254548,-0.028100223677712605
ICOSLG,-0.046083431058253355,-0.02345109736543073,0.05146644936469489,0.010253251809315621,-0.04636725074422579
WIF1,,,-0.03916321120613638,-0.04088382917636388,
NPPC,,-0.01780171029453366,0.04423770439167743,-0.03063399366093327,-0.00798833662845331
LYZ,0.0001964158433781768,-0.024577830710206604,0.1230490081155437,0.0070201765855693495,-0.07303263375982096
EREG,,,0.1958486505455721,0.09604588826708241,
SPTAN1,-0.0064818504519165146,-0.02523875885310799,-0.034061882710063135,-0.029829366213599103,0.004813889049169806
LIPC,-0.005871319007780129,-0.020622768224614913,-0.01797970645730214,0.0002815956477809783,0.029188836186314685
COL8A1,0.0030615845148695225,-0.0022326762229100063,0.006678740045071349,0.04390569437191445,-0.012993943342459206
GSTM2,0.04866343349632755,0.05084887484207565,0.006718995186604549,0.12068471203168188,0.008001691227283407
SPX,0.04864088369221603,0.02116246365404764,-0.03605999478052739,-0.00882550195821915,-0.061887834218714514
MFGE8,0.014238454374917341,-0.0391048988361305,0.04855236473288818,0.013189570421989379,0.009777047770688246
TGFA,-0.006634636006043141,0.021123821137580313,0.023554557444943277,-0.023999724085299528,-0.013500371893630988
SLIT2,0.06457471208052729,0.017008466047903466,-0.008090456762462122,-0.04474022567072339,-0.04087981991113883
PLTP,0.021929517311148086,-0.009992148612207855,0.024657684443210558,0.03903688951337909,0.00017016901811155025
APOD,0.018703646762032778,-0.007661289022787082,-0.07454518450162827,0.0013628512648229997,-0.018249786771209614
B2M,0.06508962720466473,0.014101452129153008,0.038598097010173915,0.03375254458696523,0.03670145070405412
OMG,0.01696206410645756,0.022459586848207067,-0.08904209678135523,0.01973247338811736,-0.0019346007911378556
CXCL3,-0.005568180695055016,-0.04037790783651777,0.12850501282853063,0.06069165982651214,0.004409119084382801
CXCL10,0.07247552000165171,-0.038834982743216645,-0.026938220210449837,-0.018451843536984522,0.0489074178808695
RSPO3,,-0.01332683886128095,-0.017979695371931115,-0.010873128601777372,
CORT,-0.024856157807852254,0.08391693781061227,-0.021821075001785564,0.049029771650134286,
NCAN,0.049565030355572304,-0.04946795558677657,-0.06392148380454026,-0.03948891551334339,-0.02579166135329473
PRG4,,-0.013153015236459686,-0.012873397335880728,,
ZG16B,-0.016747708077424175,-0.015265682792269223,,,
TGM2,-0.006162136550009204,-0.01667024382902853,0.07739731715912673,0.02997251996288447,0.00490351964605432
VEGFC,-0.02150470211768997,0.001362971008765764,0.016204238635147483,-0.020746700336387456,-0.026920525897304235
WNT6,0.12788780934691127,-0.018192313691937266,-0.01773830214834454,,
NRG4,,-0.01600782123893744,0.001740600910623339,-0.023113051805742822,-0.021616793455656896
PMCH,,-0.022180395864911093,,,
COL9A1,0.07650041338233267,-0.016719000941606523,-0.04489357363528399,-0.018105462291170275,0.010674259302497022
GDF11,-0.05130722223814862,-0.0077703635737673,-0.047384003852279345,0.025992602010641384,0.03992180497456816
SORBS1,-0.04489367846764967,0.030951862596479765,-0.0028744372019318845,-0.006733236294019705,-0.0012558046099533226
DLL1,0.007994517816264844,-0.015077430935363905,-0.005308896413564529,0.00125014177571017,-0.023551821091834905
TLN1,-0.020869970166164833,-0.01766071500386575,0.05535452734936892,0.06503741816732535,0.002389802603809337
COL2A1,,,0.20880575525702322,,
SHH,,-0.013668142372508596,0.009949063055241356,,-0.0024795130479905057
PON2,-0.021199059234780885,0.03316990487097524,-0.0855205252980414,-0.05421131183539185,-0.008937465090609685
ICAM5,-0.019936824635135252,0.035962524754419335,0.024376079517022264,-0.018041691498827075,
HPX,,0.004832650337020309,-0.019656026829747607,,-0.028982565294717082
SFRP2,,-0.015566532947607674,,0.0638383388016471,0.04366784470153796
CFC1,,,,-0.01885945302832154,
CD70,,-0.02645867689771976,,,
HP,,-0.06161527874714244,0.1707526498343572,0.07306366674169851,-0.009460064031974387
CXCL2,-0.002369718986284311,-0.01784167568852133,0.10004192630171894,-0.0027558796953290397,0.001733221451246909
NPPB,,-0.02181883249791615,,,
CCK,0.013053959497464091,0.05824396070754924,-0.07895746001298312,-0.050257578372025026,0.04761669689011596
SEMA6A,-0.008066060764028412,-0.00843214306473428,-0.03947735169626365,0.01552520224303173,-0.02010462007243859
IRAK4,-0.06301308030308919,-0.0017758731066161522,-0.03781221538073221,-0.023688721338117037,-0.04698793832919369
GSTP1,0.011068210716215925,0.03692039853965078,-0.06150713527412272,0.045710414912831475,-0.002256849457401449
VCAM1,-0.04112472541889754,0.0060038940473952085,0.10265548659345503,0.032915726226793014,0.012348673311875492
NXPH3,0.0025829435212787973,0.06236458745811479,-0.012831316571947264,-0.058106723785078786,0.10430310113670124
MTMR4,0.013168492848392447,0.00298088227804661,0.008824788314510282,-0.006695800707802714,0.028468935208599996
LAMC2,,-0.030550697865660757,,,-0.0209000977683343
IL10,-0.022184121291916263,-0.03432268425503994,0.028384499497209514,0.05131289345130345,-0.020160151433433613
SEMA4D,0.03173313465186157,-0.00380053162486582,-0.0322324960043597,0.019379944031626378,-0.005325517831303794
TRH,,-0.014047206884712553,-0.011314802120013644,-0.011359697635317762,0.013116352391815713
SEMA6D,-0.006695480157685625,0.01831955323412809,-0.0038013290655630493,-0.03339423869322343,0.03218004711788101
CEL,,,0.04278769225012781,,0.12415163900059897
PDCD1LG2,-0.030856081297135247,0.0038704910289292676,-0.02515748179643375,0.03339335981289208,0.03856532559132348
SPINT1,-0.021803443788943642,-0.004665791928099129,-0.003721912866719661,0.11132376947327892,0.01563589314438098
CTHRC1,-0.023234086070886936,-0.04276176329928945,-0.011351682467490931,-0.0070244955902778565,0.023341311292687093
PODXL,0.06163400737083871,-0.05492161324749768,-0.035410262231281374,0.006458682137477062,-0.0019381401770495685
JAM3,0.03757011529837531,-0.030983731728501298,-0.008291710704069293,-0.01214731775792241,0.029090294799608236
TGFB2,0.0464848968408368,0.04069325807913569,-0.05365180178620602,0.014106992979384806,-0.04825731928465736
COL18A1,0.02896920604275895,-0.035965918671004106,-0.03162733170912536,0.007193524109052966,0.0236148394926347
NODAL,-0.014917757927363289,-0.026918151892426148,-0.0272516423907462,,-0.031440456045430845
INHBB,0.0031488754023906757,0.004966220456291715,-0.03530927977572456,0.04806576987326715,0.027185130810016788
ARF4,0.004304980706530782,-0.006693016832709825,0.0682845049489932,-0.005636409924216542,0.011471116531314812
CXCL14,-0.015573843861303276,-0.00013895696977605536,-0.045427693752510184,-0.006588984296927203,0.027093772481378366
LIF,-0.01887756690006451,0.02180430668892813,0.10839902241544416,-0.025659345664053642,-0.02278617407647766
MMP1,,,0.08467944875974545,,
MATN1,,,,,-0.021141458920478685
ADAM28,0.012923951414646176,0.024680996587083066,0.06523742320882824,0.023007094694221252,0.006285272537124901
TCN2,0.05792698961832141,-0.04249339696222924,-0.053951110723964045,-0.0077931543731299706,-0.029191782275588454
THPO,,-0.02772916088330903,,-0.003144918216151496,
CUBN,-0.02712610797682894,-0.00700576247052356,-0.028417325805910946,0.08821495225740585,0.11477626701929393
TIMP3,0.02118658008517144,-0.027073218307142252,-0.05866900004660668,-0.013325159278763585,0.030014570432659815
PIGF,0.003953110394951906,-0.02655192851202716,-0.061658263169900064,-0.04279236979641627,-0.05390841935626328
CRH,-0.0017237364623993077,-0.015416799534015299,-0.011497898848095121,-0.021850769152430966,0.02306079601162252
BDNF,0.060319790153508905,0.037631866215797415,0.06349578948251207,-0.0036223228484140533,0.013875591289744322
CCL5,0.08649713969158813,-0.03140768549367928,0.08425251348103681,0.007633990656306412,0.00027613878323042
GAD1,0.0072668673792055,0.07902517284257898,-0.0634402453776615,-0.025330957812536754,0.017973704372607025
COL14A1,-0.0098467247993336,-0.000462694908412815,0.03122183716561165,0.08651169212051252,-0.030029792546532978
HLA-A,0.04993420013001926,-0.04104840116852297,0.10084564621503327,0.001404578907578857,0.040424928880669786
CD5L,-0.029500961680173306,,,-0.02658218273280642,
FGF18,,-0.0122485319394023,-0.01568785001033314,,
ADM,-0.03655649787641634,-0.04896918890741176,0.12752529548336997,-0.04147272345397401,-0.07795953346551965
GNAI2,-0.009945882520975998,-0.011081895734760374,0.015470183558119728,0.028617273855792227,-0.023466419316381742
COL11A1,0.0076111908955346025,-0.021904229296738426,-0.03162442579663975,-0.03226638979183282,0.009404680693530123
NUCB2,0.008595831991749594,-0.038383350853636415,0.08395337004075136,-0.015101786635489906,-0.005261901285729301
CXCL1,0.04417699145246302,0.05615116409813785,-0.0032459794417090257,0.012773489323612443,-0.03177869999148416
VCAN,-0.019508209930787723,0.024125163609167596,-0.04279415709049,-0.06175876765764822,-0.007716394605761739
MMP7,,-0.024350914675537627,,-0.015643233447006268,
PTPN6,-0.02642560502803404,0.039904992134085236,-0.024351884596996932,0.09379374627212238,-0.026213663507338836
PTGS2,-0.017923878192584373,-0.0026535940429641544,0.10154232983877443,-0.019531988795489452,-0.026136227700354772
XCL1,,0.029643438237285456,-0.012031227616535335,-0.02051947128995821,
CD58,-0.02460793858099582,-0.005689554384830254,0.03730635077898309,0.013010272325520041,0.0021652832390774636
TNFSF14,-0.020946905140671625,-0.004468549155793096,0.035284817374302814,0.04229616237647882,-0.01946353135042036
CNTN4,0.0034014721252242134,0.060111709740020676,0.025275144211587153,0.048136186136059016,0.07070593749915
NTF4,,0.10230822446340362,,,
INSL3,,-0.012248529536924253,,,
BTLA,,-0.01944213875783124,-0.012542955308605835,,
MFNG,-0.00939347790676865,-0.0006962749487883019,-0.04933308406713457,0.023594047315386453,0.013109689557821276
ICAM1,0.0060507629131921195,-0.046947565493548865,0.1185681540007509,-0.009751621058068668,0.043389603993442834
PROS1,0.054381172372656335,-0.022204005639369393,0.1034511226563754,0.03414247496078048,0.028159743202774073
CLCF1,0.0029005093063298663,0.015630326834076506,0.07812439276181185,-0.03598165688930714,-0.015381866165928595
PSAP,0.04003273766204227,-0.012952580489541862,0.03362315098417866,0.06939274384169729,0.028743970383404555
EFEMP1,-0.022749267862142073,0.053643804651245096,0.04318349310255973,0.011286998218139123,0.02152589527878823
C1QTNF1,0.024866807981216165,0.0009977673477661647,0.045741752112117576,-0.03876240267500153,0.003856223976553769
ALB,-0.027631974981827626,0.031207952365683512,0.06391716204597615,0.024783651425161098,-0.04946159279570509
EFNA3,0.004287743592629296,-0.04441663191661492,-0.028699866990617752,-0.024588029676887488,0.010333324402177246
DRAXIN,-0.0019062758147859907,0.08328224786604403,0.10857059416645558,-0.02141528773855339,0.017482368234723798
NPTX2,-0.03844853135013672,-0.005858718323343078,-0.009192294494077359,0.03303951427266248,0.049817494382460206
FGF11,0.024132805434534284,-0.05638397203728947,0.01863365846542341,0.06832597274931826,0.001643299143101583
CD59,0.0533271002332578,-0.01435030842639242,-0.047034836069141744,0.010902800321061166,0.014663096767528456
COL9A2,-0.04108784491318318,-0.0003729268933854415,-0.06123215674339997,0.0500587862724904,0.007982561324971788
DLL3,-0.01368165610903647,-0.009594098547935456,-0.03296009011719759,0.024117340188045684,0.03818772945464791
FGF5,,,,-0.015044917921535415,
LIN7C,-0.0029145204071337988,0.029050241253762925,0.04339904952967758,0.005965519726547699,-0.007440180454014523
GDF7,-0.017595330774663354,0.033886795657345745,,0.09291215010178756,-0.03454463180405654
PSPN,0.010705412046840744,-0.016106277272060765,-0.017892970840938757,0.0705241827026509,-0.008519231689492559
ANGPT1,0.0012330631400807614,0.03814414011896502,-0.0047503463137636955,-0.042955180865427385,0.06963218433212212
PNOC,-0.036821543599270125,0.03721306608045947,-0.024976089388849525,-0.03830011903025437,
L1CAM,0.015566001649436284,-0.014392012265229454,0.025196645087480048,0.03527644809604004,0.02621056637100113
APOA1,-0.024367170995998454,-0.019075061020338686,0.022834500613633516,-0.04009628418290964,-0.029163849914062942
PSEN1,0.03897014996785133,0.012048712157208565,-0.060632839871254646,0.042253502157242065,0.04383501821738956
CALM2,-0.000575045610247368,0.03730744675570871,-0.11034527570740514,-0.029909707455387232,-0.03543819232470679
CLEC2B,-0.04079400795893635,0.024746002428340505,0.06552740631918653,0.0010063447534219326,-0.008434079706514197
NTNG1,0.0699860125317592,-0.044202353893142976,0.020385784404191008,-0.05496826099521852,-0.00428692540319328
LRIG1,0.06940172770159601,0.02620322209974282,-0.05442265840702131,0.05363344073457529,0.021957183477384352
CPAMD8,,-0.014487824864251398,-0.015275605021701983,-0.03393937766305734,-0.029440282923088566
GHRL,-0.007191531871336033,0.060144589627974206,-0.0258703609980095,-0.016779385284501645,-0.030839440842429365
NPY,0.020102176147227507,-0.016599778279305127,-0.06382292113768946,-0.023876794909525732,0.0194697123924073
MMP2,0.01719116987373382,-0.032859570152825694,-0.03361010017152372,-0.011593812062950957,-0.022800631753934836
LHB,,-0.012617801332429542,,,
PPY,,-0.021963912097811077,,,
ALKAL2,-0.01412313577008118,-0.012434484359460887,,-0.03102596824719955,0.11475009093902953
CSF1,-0.018901284075491208,-0.015643788207798454,0.03594917621894447,-0.0055302683841528,-0.027242945178347647
SEMA4C,-0.0001334313202521168,0.02907252608693257,-0.0329435885248389,0.06251032938229609,-0.00357729179302832
ICAM2,0.03737960137154805,0.020590333991283075,-0.021793530000307683,-0.023360736262273512,-0.014057063391127183
SYTL3,0.04913612556353799,0.00025152068981135266,0.022604399382330595,-0.042809737711907964,-0.051878692822309676
IL1A,0.031855816157267194,0.0010938304171376346,0.0896865690608221,-0.03711078761176387,-0.027876257987289155
HLA-G,,-0.013326839900689233,,,
PGF,0.007784635126786833,-0.007453381997258279,0.02096679193252767,-0.047340132298660416,-0.0032806740333686884
LGALS8,-0.00028214005707249414,0.006347735462019212,0.05983784211549646,-0.08011323238305658,0.05875006610924597
DKK3,0.028602778551719683,0.017275985688269505,-0.0872371414261796,7.062516709757737e-05,-0.031207504098359047
COL16A1,0.0007606040756612381,0.05474679536769189,-0.09033805407565224,0.018643495900234654,-0.044048944195049296
TPH1,,0.06419596981876842,-0.01499498655688528,,0.13165534491543027
TNC,-0.017299106609515936,0.033286616920091765,0.1168191805107083,0.019337784853053767,0.041079396528194624
TNFSF9,-0.023617102728770337,-0.02185495413176445,-0.02849919616317434,-0.018853525784508975,-0.03818970868379361
C4A,-0.013917717253338993,-0.014959135661774509,,0.010597932441059383,-0.028800327968764725
CNTN2,0.013877800378549073,0.0019723894942255634,-0.09179073396080593,0.03857015392987919,-0.023691978677188516
LUM,-0.004991491532904863,0.03620871406084463,0.05131970464474506,-0.011668792735212189,0.038041659962258854
BTC,-0.021778755584951532,0.0022835443155309106,0.009418549018183012,-0.0220656133313265,-0.024711768314457816
APOC1,0.026245503969701277,0.028352204611500342,-0.012202028209207254,0.016965229851681706,-0.02430580043593642
PKM,0.04548123975320424,-0.0009151848310841511,0.08170591408702932,-0.0009558850905058324,-0.006962911380707951
TNF,0.03210855275314754,-0.03302460727115795,0.00438069344235669,0.07762668868725053,
GNAS,0.02623990718054836,0.029682305010843776,-0.1279729768201998,-0.0065665275715583275,0.03008590682867829
BMP8B,-0.0037440396391757538,0.041758154972109815,-0.015302062577190129,-0.006973599761284621,0.02490438931642481
LIPH,,-0.0031299394841119385,,,
CCL28,,,,-0.02248980119723339,-0.019907894048978244
PTPN11,-0.007209363846721587,-0.02684716696770903,-0.04224200078304833,0.00522727898488996,-0.021281495067429306
ADAM12,-0.01657331146021889,-0.011850497550908756,-0.0347247078090322,0.0026401754594504293,0.004720305286045296
EPO,,-0.01932048557381396,0.12044159563341512,,
EDN3,0.039722630317671946,0.0594193244488144,-0.01648391036970233,-0.026943750958555973,-0.04895301957188233
CCL22,-0.017595330348585406,,,,-0.02471176940810497
CCL2,-0.04526234342633176,-0.026271515577440403,0.08835972702617571,0.023342765012053842,-0.0013822495320876948
DSCAM,0.01616650465392975,-0.027298208288613176,0.08337902816754142,0.014053889790606375,-0.01219451304757989
ANG,0.008444322281523102,-0.015196230697572059,0.06768259992984707,0.04864387554700112,-0.03541362278663544
FBLN2,0.06197558214722163,-0.0292954204316215,0.014223581177678976,0.02393764596468086,-0.04882978736198954
VTN,,-0.013339321249737095,-0.016222528123964415,,
VEGFA,-0.02495780857065573,-0.01214578950449683,0.13038042520285298,-0.02892332915381342,-0.04934542331098722
F10,-0.020083956703384483,,-0.015135893263025332,-0.024707088840097795,-0.021380334379986002
SERPINA1,0.020328588767460545,-0.005432213047790077,0.013258115522248492,0.007011617543884479,0.011675214021446664
VWF,0.004995914388165661,-0.032201608407472146,-0.03018467303478276,0.028243457351235426,-0.04385002158337805
GDNF,,-0.01571492194254492,,,
VASP,0.06107607941802897,-0.06213581841460717,0.022325124001623516,0.043288112271281085,0.010912433305134457
ADAM15,-0.022070598330531137,0.0036903351583037693,-0.0015656698540824298,-0.006815592132385082,0.03994046846240117
WNT2,,,-0.013035648703185528,-0.025471361255528117,
CALCB,0.07398387413490977,,0.07632567803176599,-0.017052302221629272,
OLFM2,-0.03215953235234931,0.020727140783895603,-0.022159997103721643,0.03799302949522774,0.03160673601170549
MFAP2,-0.011629978787182636,-0.011606534442643165,-0.026221007905806722,-0.019823604553860327,-0.02062476341734389
HLA-C,-0.036673971672638944,0.018539169827522208,0.07236670137473425,0.03368670369226764,0.007787515788242269
THBS1,-0.028827809755871722,0.03805572902719202,0.09502205097855694,0.01407303161973323,-0.009132873062188327
HSPA4,-0.012027328493762552,0.03249834690737743,0.024341569666919957,0.02787046934077432,0.03894775903200946
LMAN1,-0.0067665546368363095,0.021589322212120815,0.14319789157973206,0.0749854247438674,0.06913648397436423
LYPD3,-0.016219232824595895,-0.014165368498196853,-0.01622252951977685,-0.02051946277564867,
APOE,0.03706108980933506,0.03259424558759888,-0.015520109055033086,0.016199987227984443,0.021091455245382407
SOSTDC1,,,-0.020252637338276466,-0.01882980057327863,
ANXA1,-0.04193897705839688,0.043491135361449,0.0441336295810671,0.052561985148805154,0.03771883326272199
WNT2B,-0.02284539438868938,0.040981102037840826,-0.023299283783377703,-0.04080187730535986,0.04192098649743933
AMH,0.007743630939038403,-0.019683386586130638,-0.020144351159716967,,-0.01990789151029858
GDF10,-0.018246902227136784,,0.012288364367814721,-0.012464669716804601,-0.025125994845472448
EFNB3,-0.025986639425166123,-0.05315791649671076,-0.06526999078102994,0.023680363685180224,0.02102509226922868
LTB,-0.000946118436726277,-0.03356368342614344,0.010660011504264504,-0.009088831013760248,0.030216340683724502
ANGPT2,-0.04154146379049037,-0.016575324380341407,-0.07253980016328009,0.0195141320049505,-0.013391533990646841
NRTN,,,,,-0.025126003859304757
ADAM17,0.012486055251586137,0.026653502907211187,0.04598389230046044,0.016191291999995902,0.027534566334991045
LRPAP1,-0.029646494710892927,0.012446529204110756,-0.0544249168375039,0.006460247320152606,0.04812337366043063
NID1,0.017126631498706215,0.03900897472356575,-0.013358215190613032,-0.01719135800762092,-0.014320668145060713
MST1,0.03401387834604236,0.025431384242507262,-0.0033338500904224098,-0.03640810520547346,0.03607835084614342
DCN,0.01880823532190218,-0.059153007448045684,-0.010147087412224634,0.02760121111770772,-0.036745508171036806
COL7A1,0.015457444839992295,-0.02260067340718377,-0.04474834778921982,-0.011127405969598202,0.06332168078328891
CALR,0.010021160299204097,-0.050585850214556236,0.11013914238351007,0.031181451103248197,-0.009426283145857443
PIGA,-0.025185858490104195,0.017468876205752173,0.03918239539231961,-0.055360952632708696,0.12149847366245975
CD200,0.008402586225317716,-0.006480241060489359,-0.020311255552760737,0.024690695058608204,0.02847188287581163
GRP,0.025294004336073875,,,-0.018859466954541194,-0.008006783920604289
CDH1,0.007196275496113565,0.06840172553133425,,-0.03132464605279444,-0.03832355513655241
LPL,-0.022601927734429664,0.012611456891908145,-0.0048079108615302875,0.005071990447840686,0.04078207060413833
SEMA5A,-0.0004424327578187555,-0.0023249301220880747,0.0077961097070338905,-0.006050980110460917,0.0351159766500449
SEMA7A,0.03444908215628336,0.00849879566876701,-0.044374296530713966,0.053801395549889754,0.03554565542731549
SEMA4G,-0.025217473429371598,0.008543796930302982,-0.016280718917875272,0.03654155656022155,-0.02917208287195908
SEMA3B,0.07960895661386912,-0.004241681108835608,-0.00903395820230566,0.022352203489431326,-0.015852133672332142
RPH3A,-0.000454727439044679,-0.02822005878582943,-0.0428429149624194,-0.04371020103561036,-0.024184655671273005
JAG2,0.03572750200739978,-0.003130723527558285,-0.004647931315799379,-0.025274172923126087,0.06825815450180456
CGN,0.010316128687924532,0.012148393409618966,0.013488486305547876,-0.018483586961394953,-0.029258968915481166
GDF15,-0.02424357817138274,-0.040407244302341265,0.1001970568040746,-0.039964011654477063,0.03030527984625149
SEMA4F,-0.015189595764280623,0.010837703743717406,0.0007966724105902067,-0.062317460270452325,-0.005749168454671607
NXPH1,0.07326589072185709,0.060975254933194264,-0.017890544572327072,-0.03428246651391448,0.04787740708905375
ARF1,-0.021611549480339824,-0.015209063688935,0.09188266989874051,0.03289792247817651,0.0619922345895146
EBI3,-0.04737400661860165,-0.028058694314334,-0.055504965458379726,-0.03883256304838929,0.021094497675497828
TIMP1,-0.0040757470799468775,-0.04761264232489129,0.09238583011429442,0.05323995210447812,0.031453616736314256
SEMA3C,-0.0023309957942007713,0.04226570502450766,0.0190750718638095,0.0314532706111521,0.02567936147177409
GAS6,0.012376045359253079,-0.030723430166453337,-0.039996930230401365,0.01666500405527658,-0.016284574236301717
MEPE,,0.05099862957097041,-0.03049235526047527,0.0019420425051850077,
SERPINE1,-0.02406931120473404,0.022727621236146283,0.10764810115461308,-0.009178976635336308,0.06333360451470768
RSPO2,-0.024243575083514202,-0.016007818525918534,-0.026654204460945047,-0.03512566032627327,-0.061492642210665055
SHBG,-0.023362379394906783,-0.02561425783643409,-0.024335604001512356,0.10556783824642,0.09689990261144826
LGALS3BP,-0.012270087472441642,-0.004687255068727608,0.02615103284065047,0.007144791230551541,0.01429603322193982
LAMB1,0.006095714939604689,-0.004860127580998426,0.012745930687552153,-0.009590441336263987,0.018793655993968705
SPTBN2,-0.03367099901266897,0.03491237162632808,-0.038252490291014074,-0.010694501799434411,0.05675216078258169
COL1A2,-0.06346847827504527,-0.039422098987766045,-0.024270714157590224,0.012069718430728073,0.014272919747033753
DEFB1,-0.013709350733999875,,-0.01319602034560441,,
WNT11,,-0.021635583031998782,,,
LGALS1,-0.03736230608749337,0.0003186272157713547,0.032564485036321596,-0.030041969614156838,-0.025778578874989435
BCAN,0.003271858057247791,0.0010357571832552758,-0.11174247137974723,-0.03934314467929063,0.029465100129595658
ANOS1,0.039003688137724875,0.006092247025500808,0.013424350705014854,-0.00040081152991216915,-0.02337201232906868
EDA,-0.02828949157706729,-0.029718556774106158,-0.028335275505655844,0.05428572922902738,-0.021272351548064925
FGF22,0.04932357112380002,,-0.019145891839144582,-0.03654942204602851,-0.026920526635392572
SHANK1,0.02635029372418473,-0.026086229291269126,,-0.028351049986758886,
TGFB1,-0.006001582327392559,-0.005808402713987937,-0.02479491402980196,0.00985748786392326,0.0019553190210272087
MSTN,-0.02199531081217944,-0.022691653227453062,-0.05180052382555082,,-0.009210918521759582
WNT4,0.054085007156759214,,-0.021101579031599222,-0.02676348310003152,-0.019394282432280363
TNFSF4,0.08259209438312554,-0.02018964880613659,-0.027251643652402534,-0.028863962981253252,0.07650734108197942
NTN1,-0.044087840352484586,0.024079566997562737,-0.001731694029942705,0.029354422327042065,-0.041450740047044674
CXCL12,0.007401252066231554,-0.00403962338622451,-0.06234453126296812,-0.042493642474432845,0.02037706440702157
GNRH1,0.014434588724028021,-0.017137736282921076,-0.024149895959854215,-0.01982360442834991,-0.019652635161193036
RIMS1,0.0028293295121248254,-0.02763096193392192,-0.037024172160307234,-0.03421785049285874,0.0035387677486029704
FGF14,-0.014250652883661258,-0.0071230555590671004,0.01518180470569624,-0.0565666923716556,0.03928633431928287
IGF1,0.02816458747380394,0.0007448460132102733,-0.0035971780725286943,0.042266555246789274,0.10976897863155195
TNFSF10,0.0769118321587342,0.05327253961866688,0.03105340130489631,-0.016780190696568897,-0.06163441460521852
GDF5,,,-0.017493925076506073,-0.025846157012547857,-0.013233418681351423
CHAD,,,-0.0186871673208622,,0.025100965962401217
RGMA,0.0030671953118452987,-0.04405067896506529,-0.061813739244942295,0.01594248456993564,-0.0009252312945682927
WNT16,-0.013917713857359501,0.011134686672214546,-0.011497893849074617,-0.007030076763297105,0.010477308100664684
CX3CL1,0.016157573235422433,-0.022674028530578504,0.06959230223927056,-0.04828604175912774,-0.028988203663589902
FGF1,0.04958984568834429,0.02486724542277091,-0.08139100838192015,0.018562219475628444,-0.028088433390358915
ALOX5AP,0.06058227826440599,-0.005772866052309219,0.025997915270001087,0.03158354892843944,-0.037716301601810755
IL1RN,-0.008118336283409239,-0.022478372387050194,0.06831112974040165,-0.035262488445914814,
NPW,,-0.017932782938741197,0.015705788248746504,,-0.020160144741768783
CXCL9,0.0805409354436,-0.009527724944524413,-0.01833646509538307,-0.017847617400902578,0.019319871111764315
ANGPTL4,0.08370447914534306,-0.06669988751894462,0.13602527316962051,-0.083104616272356,-2.4882647462204385e-05
UCN2,,-0.012434485294922203,,,
COL4A3,-0.03391532148765871,-0.023766872583994316,-0.04983028068850632,,0.02714296167545536
NRG3,-0.005773699901286343,0.07348944878961432,-0.04309408667232144,0.01268659914078181,0.028762017655921956
IL23A,0.03410191823279903,-0.01956310241786958,0.12247534338741256,,
COLQ,0.004011589490598476,0.026233102614191203,0.05217981543190054,0.016774136505566795,0.062209373281095305
SCGB1A1,0.03258821451546951,,,,
TNFSF12,-0.02524152004914992,0.002825914713399307,-0.027621455716290964,0.01950016509666216,0.05628262547065054
DKK2,-0.016573306919156688,-0.012617802370119995,-0.012709192204074649,-0.031954913474259244,
FYN,-0.0038395559839478387,0.04997697109715252,-0.03493811322683317,-0.07277971355598942,0.07573825607279087
ACE,0.054825948546645915,-0.018238170549893327,-0.011836755058782136,0.0029608072981541747,-0.05405828865213063
IL18,0.022495988197789803,-0.0033811744981201825,-0.017271653633180024,-0.007979512980600744,-0.03560483530699049
PPBP,,,-0.012031227616535335,,-0.02321062359031454
CCL27,,-0.019199092915529074,0.006964477664864543,-0.021850766164052574,-0.024919652548973638
SERPING1,0.03754794086758828,0.0013169399059972922,0.050225122790934225,0.0029643174164748188,0.0019584127335099295
AZGP1,0.018710805284795747,0.043100211174158874,-0.08873052320477136,0.007589858491360333,0.04907987158034137
INHA,-0.021642119773961334,0.01486458814160992,-0.046417312843868616,-0.030196570579835505,-0.020160144622274827
SEMA3G,0.002946024518988025,-0.023442195942467874,0.016514848024358524,-0.024707097091654598,-0.018599281000609293
COL6A1,0.022091200197173543,-0.03760917241362213,0.1316237389214502,0.0743417305637311,0.02652875262547692
FGF17,-0.015488227172747554,-0.02333933447137202,-0.021617589382087198,0.03766256801680895,
TNFSF8,-0.01370935214537578,0.05659017189241005,0.1071910895382137,,-0.01805119494436019
FGF20,0.00965855951660504,0.05772093262335055,-0.024612022007826615,-0.03195492264125708,-0.023471552586804518
ICAM3,0.028733156536303626,-0.019137240535033025,0.01176053580455924,0.014310020985370483,0.03540444621478022
LAMA4,0.032820805399414066,-0.07718562273271752,0.021191355296341263,-0.019560898004498548,-0.017747782444307195
DLL4,-0.0033731781418871753,-0.007183436924882995,-0.04440077381268351,-0.024900058723434253,0.027429458789943233
SEMA3A,0.02464387861047696,-0.010574690106057683,0.019965242510115878,0.041134082803412755,0.004344566615219438
RLN2,-0.014722934834693256,-0.016007822135613487,-0.01845402425698287,-0.023113078157070775,-0.012414410045829865
C5,0.04923534381427976,0.04881959237622624,0.0035039311894908293,0.05686320032488273,-0.002871628417985895
COMP,,,,,-0.021616789980516093
EDN2,,,-0.015823071551162624,,
C1QA,0.0028047569261326105,-0.054552244218020324,-0.05856758623246962,0.03159494860095552,0.02578038029922363
UTS2B,-0.016747707356591965,-0.016007822043646702,0.09501569244541687,,
COL9A3,-0.013623984835425736,0.044078409279881645,-0.06645218349625483,-0.019777660766472648,0.023560088375741143
DLK1,,-0.026643264936571303,-0.010747630539178644,,
HGF,0.023353156442980697,-0.0038414989642555535,-0.005770729595376291,0.04715375912238995,-0.0026822467617229327
P4HB,0.019500008040311063,-0.0024030526441827984,0.12464520935322525,-0.0710349118006768,-0.02215069540595128
ADCYAP1,-0.020805341836678443,-0.03232150836966646,-0.021719533119793334,-0.012919072155261477,-0.021198624920745417
GREM1,0.07016699016468417,-0.013835776797618956,-0.026308092983469998,0.018482853446956715,0.019945661235928672
EGF,0.12070713839247411,0.0038118995321207716,0.037808400201222156,-0.02565934766078165,0.04631711008257456
VEGFB,0.022726473946126903,0.029678341584903522,0.03890262542159685,-0.005220525653980231,-0.02018527622236925
FARP2,0.011942319609261348,0.039978782765945506,0.002829551941937585,-0.013386610431839372,0.001369228737385314
BMP3,,,,-0.01958665610001899,
LAMA2,0.004228901635306763,-0.029207776187563535,0.008871966195585808,-0.01748449022432214,0.026435444921664737
NRG1,-0.03261911782928586,-0.027995170416399217,0.04027360326120137,0.034951970968155804,
SPINK1,,-0.03168650434699353,-0.004667061757264266,,
EFEMP2,0.030480924321801446,0.013063644603623758,0.02491454186361691,0.018712330465048967,0.020002822914018354
SELPLG,0.011665216924537923,0.014757677097628907,0.0055099136263981495,-0.018828114870869554,0.024381313324908258
GDF6,,0.01381997863915778,,,
HLA-E,0.04507150223593419,0.021531355863455916,0.04848468943753622,0.036896103787010505,-0.09015347684457119
PTN,-0.01368338782614511,0.023784237773273306,-0.09230603952581606,-0.013170280452752751,0.02687710313521686
CD274,-0.006991901754057422,0.01982890743854948,0.0801499844943264,-0.032729247684941454,-0.049198890741412614
CD14,0.05468151055544408,-0.04463749170759666,0.035052484984283754,-0.010624413896823939,0.01605489927315393
SFTPD,0.13076044897207084,,-0.01351137441773642,,0.012667412063960206
SLIT1,-0.011838218807122106,0.02756171060073981,-0.05708868216079368,-0.03432037558531563,0.04049737846867297
CNTF,,-0.012617801073006968,-0.012031225596054794,-0.03132465892060101,-0.018599288340003326
BST1,-0.007845216472455974,-0.016371971222426108,-0.01745203548416641,0.01923572752849467,0.0039981642826460145
AGTRAP,0.07876307085372485,0.037872902564146764,0.09260510872975942,0.06835128301641255,0.0373866725818074
LAMC1,-0.041056177911573614,0.0009474091318579728,0.0676424645882952,0.003779956639522162,0.0574840717544822
COL6A3,-0.02150469846455314,-0.006534771501088072,0.009910383911195655,0.06819150663053877,0.03489939091619301
FN1,0.020017120141770907,-0.05295865314927559,0.10157227893678177,0.042906428090187555,-0.004019671185494594
MIF,0.02365618492639039,0.01696258868954567,0.04870720713554653,-0.023445206541708348,0.004347828633512052
JAG1,-0.047715689866653276,-0.04151997176304184,0.031843460902614126,-0.01600527395691822,0.00010738625533176618
NID2,-0.025692349563400916,-0.008880436145815901,-0.04507769921364874,-0.039831407049423416,0.03334013868833909
EFNB1,0.007256268623033609,0.020796301094162202,-0.008983169767576779,0.059491596174633635,0.0271758321644915
COL4A2,-0.018808527475442732,-0.036272625007263755,0.023372980093427084,-0.010470768460697888,-0.0027520258269100864
SPP1,0.012974637179043015,-0.004474779747887763,0.1011729331914064,0.008456841684733919,0.06265607948263453
PODXL2,-0.028420446932571748,-0.037243448319914135,-0.04784293128766487,-0.012173640535343618,-0.0011459197478109963
FGF9,0.012380449819458496,0.09411679140837116,-0.03557178635942605,-0.03014579814482461,
ITIH2,,-0.016857869331766487,-0.018336463964406413,0.023523494744351437,-0.021156050246172137
ADAM10,-0.009609064649332224,-0.06207056043098847,0.032579768674685,-0.046165179239835014,0.007847922668181576
CFH,-0.010972326565284577,-0.025098049766342324,0.026359642577583584,0.05139133059170148,0.024043723912373614
COL4A5,-0.03021476993208437,-0.0075301290062061025,0.03101682670861856,0.015552200024206462,0.018790919265677497
LTBP3,-0.007625709106692484,0.00701162516529705,0.009212577847690787,0.05275876206632806,0.05051247770021416
GNB3,-0.023713496018657233,-0.014110930741378702,-0.013027413403210227,-0.00809569859012503,0.0641853925440388
COL6A2,0.01687471380527358,-0.0576303614057251,-0.00821494210093282,-0.010290501668344445,-0.005641258094340426
GDF9,0.01541500159052442,-0.0059750830686393155,-0.0396336209279121,,-0.027305339803056525
NCAM1,0.02356257382243848,0.08476260789779223,-0.09008220015998017,-0.0420935622545514,-0.004250702381868727
APOC2,0.06354784205601069,-0.03502554914520281,0.010477872192271155,0.04546500025071101,-0.029372439228986243
BST2,-0.012733195418238792,0.020893006441593073,-0.01056294927435156,-0.019091319169453454,0.06519418508845194
COL5A1,-0.011911336318485038,-0.005262765173210252,0.039033848176686196,0.041916370929757404,0.06971835309342157
CALM3,0.009112222812653569,0.02412779450763658,-0.10007860801492567,-0.03065292945583945,0.07802430579378895
THBS2,-0.03551639064343768,0.0695881415746121,0.05320795424977596,-0.019812339092259143,0.022585540376973516
SERPINE2,0.0628100494129841,0.02749336471452164,0.13334806716024572,-0.030705504173232534,0.043040557918401195
EFNB2,-0.01228132170078611,0.010025056589991947,-0.0020783263497149117,-0.015486002075719051,0.05693978705406512
PROK1,-4.4034685025020565e-07,0.02792414537619903,-0.013196021190791577,,0.008847043773934915
MMP9,-0.013917716516861304,-0.06376920370274625,0.019905401941517645,-0.02730131216425701,-0.01671145128311233
NPPA,0.009682598630494314,0.00635062659182465,-0.03049236277626697,-0.018105461063349017,0.03113094829831435
APOB,-0.01412313661734289,,-0.017370579947138302,,0.08150320025544863
C4B,-0.016219234487296744,-0.021525153327150447,,,-0.020656144487048722
NTNG2,-0.01509707594087961,-0.00914860711729743,-0.008579172564712707,-0.017563718616300614,0.03465468447503378
LAMA1,0.00508381703841243,0.012897007278265545,-0.02461203213267603,-0.03654941007648241,-0.019879458878445694
UCN,0.0023181653804104784,0.03940111084466156,-0.03229942510746676,-0.01115536643823358,-0.013321689682165698
ARTN,,-0.021414214936182674,-0.014271156494286955,0.10996882644182367,0.05307190797210085
PDGFD,0.06652185649547442,0.021718943686464546,-0.05282877920496878,0.027252121689973756,0.06572334022582989
EDN1,0.06813971635767242,-0.0038390994009341404,-0.04170303097202197,0.012487304565435642,-0.03366060455841704
ARPC5,0.010081371254809329,-0.03405132666275704,0.00831471741395058,0.013300158383731046,-0.043368091799349605
GSTO1,-0.003326379148032004,-0.02262686261200662,0.08119982416676644,-0.004420821099715733,-0.028673182233422665
SYK,0.04627060871195749,-0.005869201239159574,-0.0728289978196843,0.020341605198675984,-0.009682090432613552
ST6GAL1,-0.03800048682319002,0.05547546191243373,-0.07154579926045965,0.02167322217981784,-0.04095228208152296
WNT3,0.02372714093649589,-0.018470418584710765,-0.01270514109153754,-0.015048378611056429,-0.0025786395067367318
HSP90B1,-0.009604225963366578,-0.038759420487332816,0.15036943400228356,0.03086303458059128,0.01231296467798493
ZP3,0.012156367361074998,0.02209730707298538,-0.021719534712737104,-0.02097169376256912,-0.030407321024640426
ANGPT4,-0.019788693832388723,,,,-0.025736310479990095
NRG2,0.05290541110062105,-0.028416686362862067,-0.03222300171557348,-0.026582176048405515,0.011440000509763973
MELTF,0.011261098326855403,-0.009612060182727871,-0.026240805061413387,-0.0027981474855961453,-0.04653634705611921
NLGN1,0.04246458749801987,-0.00401480425116981,-0.04881217381444723,-0.025069187383854333,0.029836694427405032
SLIT3,-0.017285098296316484,-0.019497699251577814,-0.019049018872436083,-0.05730151851515635,0.012664811006556425
CCL8,0.08717657389177356,-0.031558292403693455,-0.03857573622862824,0.05614468585624696,
S100A4,0.014769437406030551,-0.017321472209414903,0.10401952867604974,0.00413719902934837,-0.00227918573993249
TNFSF13B,0.007955760752401406,0.07357500462787554,-0.0011816921415466525,0.01917349566901572,0.10396619774459012
HSPG2,-0.03132581906897393,-0.013207095950264786,0.059489349770925126,-0.021355512880038355,0.004024788116693054
FAM3C,0.020611195326660853,-0.026470641989991963,0.104340508386335,-0.053158308592977876,0.0317547151445328
FLT3LG,0.07309382494021156,-0.013981963986012966,-0.018841975160926953,0.03936326574373336,0.006870560646904279
A2M,0.03394885747230443,-0.003006130855623754,0.012324494008496232,0.025957387869524024,-0.01771867706441927
VCL,-0.007765140647295537,-0.03603135892972863,-0.007190892734978793,0.038750555521290635,0.010833389019475316
FGF2,0.026269492207672007,-0.03943450423985341,0.08814209386441174,0.01856353654550355,-0.003584563372282765
AGRP,,0.020810485738314233,-0.012031227616535335,-0.017586232847840055,
CNTN3,-0.014525629982318279,0.04831817691620778,-0.03306177645486958,-0.03351206998009453,0.039018914220439974
RNASE2,0.04372530856277906,-0.03181342123042296,-0.023779547686427385,-0.0014057765070018275,0.017326481295270042
ADM2,-0.024119430195725558,-0.01932048538060184,,,
GAL,0.030202158948270687,-0.03022003007315086,0.053558544338300075,0.1543508330096712,
CXCL6,,,-0.012031220720551593,0.0034057878789171755,
PDGFC,-0.06873419912785629,-0.008259904547496219,-0.023849618353423665,-0.019799299629510703,0.006362844181424462
COL8A2,0.08460467085149408,0.014634156041002351,0.07460915687557151,0.020222422894862143,-0.046970910895079085
SPON2,0.05668878059083571,0.04286738772798388,0.043557216140609964,0.05578895015047683,-0.04820497233649505
LCN2,,-0.01895125871869596,,,
SEMA3D,-0.017119604216361068,0.088114899871782,-0.06066095291553275,0.02507600269713043,0.008285706676737184
BMP6,0.0326587180545436,0.007713902812897666,-0.014564694313014062,,0.05762820801898644
TIMP2,0.010011249945890246,0.029732223364892084,-0.07135403245646166,-0.004945517826944828,-0.04304247275899045
EFNA1,0.01511581267731995,-0.004333875205760425,-0.021957052629755332,0.05806657803272654,-0.043792428337610434
S100A12,,-0.015566532121489347,,,-0.01990788401515476
TFPI,0.006881956889655953,-0.05329374037778687,-0.014309614682912945,-0.052079183575828816,0.007911922330497752
GPC3,-0.0219146182772857,-0.005068608837583077,0.008024789384486695,-0.018859461305221953,-0.042791447145448074
NMU,,,-0.03126346343368726,-0.023921702804556192,
LAMB3,0.02074028519947587,0.0003546404313006918,-0.031416052324107324,0.014457957005907527,-0.005903290345282599
LGALS9,0.004021814012879387,0.004875884998729323,-0.028977383012821437,-0.011969263137256094,-0.011593845623687545
VIM,-0.006762430008315605,-0.005564601068515445,0.12078254375129148,0.025031046366543814,0.024277458520278104
PLAU,-0.020073826108978694,-0.027118519443988968,-0.003290375583409499,0.039863900286835764,0.006317598848699718
TGFB3,0.03211809493618361,-0.01584035757010165,-0.03910675420700037,0.0019426499114008771,0.018633409109446296
APLN,0.00636609480969804,0.018873643434009418,0.10655422247164766,0.05400560956746469,-0.024424263169577576
SHANK2,0.0003173325142360796,-0.016445933332371626,0.01530002471032922,-0.017253887421670264,-0.019394270914488435
LTF,,-0.017849099810423198,0.07621695819506756,0.041535871110343,0.010515520284821476
PENK,0.023674556747321756,0.01610649711857801,-0.03072513818012338,0.026896286623789456,0.09087171114720631
CTF1,-0.03743461505298142,0.002913102879903657,0.0455465810939049,0.032723488979209174,-0.019674102588504844
COL3A1,-0.04584600533840881,-0.037294306018511005,-0.018381371128208965,-0.0004639538520866253,-0.010177888592200228
S100A10,0.037426210849466145,-0.03485532523578358,0.09489398830875011,0.0549919574067405,-0.03529242475531985
FGF13,0.023694722821064964,0.01585430267537462,-0.02543246115879715,-0.03923018450158428,-0.01805119547400255
SEMA4A,0.006899300655570026,-0.03683503329735904,-0.004856164367095246,-0.004113751526678084,0.032839522684497524
EFNA4,0.03330959983372272,0.0018963255149774141,-0.022264700215682224,-0.03179828839204104,0.0034002941290509846
HSPA8,0.016735694598181403,0.01851464119740623,-0.05883751957516591,0.00476096733136636,-0.04198653401970157
NPB,-0.016397171363419484,-0.013498521151677571,,0.009685131699200692,-0.03267205262660353
ULBP1,-0.02796235538929505,-0.02313241069391519,-0.011314799744865241,,
SEMA3E,0.002564789511038443,-0.02381618594756877,-0.03764589268579596,-0.025961921559720366,-0.01481545592003795
ADAM9,0.028957373014873816,0.04278728647326329,0.037729753030268404,-0.021572987119984847,-0.0002788673518715891
ASIP,,0.010892142790985661,-0.01785937058939361,0.02990820614722973,0.008068154601437285
IBSP,,-0.019581639959393687,0.06311990058212377,0.022574616347362908,0.019511070769849714
FAT4,0.08376042793587525,-0.03013691454723667,-0.024794916931749626,-0.04631012540344095,-0.031841331967376624
MDK,0.01660749860849399,-0.04176389834471034,-0.014723590019833373,0.019256540505722244,0.10077412248552885
BMP5,,-0.006262693110847226,,,
CAMP,-0.01391771737608529,-0.024151540149647134,0.21451499626010814,,
HSPA1A,-0.019930954254986075,0.011730222363573227,-0.034468439507371565,0.03001085057366165,-0.007595340273758552
SEMA3F,0.019620111849575995,-0.025297194086881664,-0.03976470261228782,0.033203818087064074,-0.013168350947981857
ARF6,0.014000340194570122,-0.02518543153508086,0.034783958246588656,0.017983603648401354,-0.08168998079785868
IL6,-0.018406448257422534,0.015320360725748442,0.1198993700040014,-0.023647514862970283,
CALM1,0.05426057358557763,0.013268939853535316,-0.11078408922661245,-0.044786496473910614,-0.018659213635113577
VIP,-0.00969315404084475,0.034251190508125376,-0.02914793989624827,-0.05037410124878522,
NMB,0.03363917436304556,0.011390965809440108,0.007101641632929838,0.026532306592691297,0.009704216802305345
CCL26,-0.01452563092497528,0.02678758176581674,-0.01925907005606101,,-0.021850917683668244
FBLN1,0.016590424829632782,-0.03010111360122104,-0.01781150253760582,-0.04401321531012468,0.009252564964064661
SAA1,,-0.023260782628763077,0.08065112637038134,0.029646046580090443,-0.00665642579381421
MICB,0.030933376489014047,0.009205962036559637,0.0039004773967962606,0.0014648814359906788,-0.020700873291564857
F13A1,-0.020375300681710073,-0.057525956450230745,0.05966052899911506,0.0371730428404097,-0.05362458877640143
CXCL11,0.04137940565007787,0.01068871931750689,-0.01622252646228341,-0.017847607584972103,
COL5A2,0.04016382529750257,0.019131185535152268,0.04541235286292411,0.012645335444161522,0.01875668992487078
EFNA5,0.02156055324606722,-0.011044244399782039,-0.017147290279373815,-0.00013944001673748887,-0.02275680957185463
AREG,0.030117639668241998,0.11022727664525858,0.13200066557571483,0.016809970682121644,-0.024919634093873492
EDIL3,0.04491621704940253,0.0050961635633507574,-0.04354245124051623,0.015433133898890627,-0.053761578246206115
CD86,-0.033571335433070774,-0.030468915765969384,0.03576921767055878,0.07646037964358572,0.007525352884513664
AHSG,,,-0.018917756395421342,,
WNT9B,,-0.012248531969062533,,,
HRAS,-0.012946513124972652,0.019150816447205475,-0.016730499100395403,0.03724044223660886,0.07453526071302266
C1QTNF5,,,,,-0.012727925432975858
RLN1,,,,,0.09859450962262188
COL4A1,-0.003950813152354596,-0.0023721277767308952,-0.007833450716083408,0.007257738526668292,-0.0065222532266065
CCL3,0.02232744598262321,-0.005645122179273576,0.049226574888014574,0.02504769051459555,-0.021376496231381867
BGN,0.024427680837381453,-0.03248893251444016,-0.035295599514403315,0.005289821870746619,0.03018094830726891
RETN,0.009495999676823054,-0.015113141421108416,-0.0045378485836571145,0.005076394581464951,
S100A9,-0.01640495184310323,-0.016672576061793204,0.04477918838340241,0.016843808089896994,-0.01511605135076064
HCRT,-0.023490045595206715,0.11017254684877188,-0.045016368970985175,-0.03348953208117206,0.0007778136167555605
FADD,0.03064235336150271,-0.034381199139424286,0.03201194610533755,-0.015831901890492772,0.0352677425667224
ACTR2,-0.014800915764821707,-0.02172463933095579,-0.00936089075079273,0.01270420229766721,-0.022139759267505606
BMP2,-0.021087603471492935,-0.03016193117708163,0.04462971844537009,-0.007796530090585811,0.0787750028166085
PDYN,-0.03359591305157794,0.032739146096807975,-0.018574532298219863,0.026206868144985324,
CD55,0.03288183538640894,0.004622817853902826,0.014575225917960328,0.04124433721700391,-0.02642102015885477
OSTN,,0.0807438065958861,-0.01351137902329729,,-0.018051193090612292
CD6,-0.025574351265075138,-0.02503795284970238,-0.016995705637758707,-0.02185077777276013,-0.02321064219744522
IL16,-0.02580259218031548,0.005168490634564848,0.05378482763520141,0.03664602994972263,0.024372363662503727
LAMA5,0.05256783161033749,-0.06013247151834884,-0.08712185527180795,-0.02449047508835596,-0.018269630797323126
RGMB,0.034360057954479356,0.0012989139473452492,0.07688955930908764,-0.03482735866277711,0.022106003391110015
INSL5,,-0.020965237569330566,-0.012031227616535335,,
IL12A,0.026980301323800648,-0.004256879866016836,-0.01937166541975586,-0.017847617400902578,0.012738166615892277
S100A8,0.0029955565572349213,-0.044745239863807476,0.012857588911248873,0.008404449926259187,0.062798928411305
TAC3,-0.04412255169348833,0.020420687538911214,-0.032320926140713864,-0.03765653347700412,
TAC4,,-0.023646748254557384,,,
MFAP5,-0.015300314753876536,,,0.08251970753584816,-0.024919638140175362
CXCL16,0.022617447078815182,0.014844710177358833,0.051628446647235364,-0.052516617206875074,-0.012124675530253586
AGRN,0.012955471030414648,-0.06262512680352095,-0.02311997429495544,-0.014427663835071,0.036245682074451266
COL4A6,0.030577963346001765,0.01747503955747318,-0.019037184816466227,,0.03997490064680985
FST,0.017815030616438896,0.01678115026825714,-0.05323395154061786,-0.005101802248559804,-0.005260899412833275
MEGF10,0.0050605180499477265,-0.011056191771467045,-0.0613727760740114,0.01607450142154816,-0.0016617213990197286
C1QB,0.07008435206820271,-0.0342496497367694,-0.02480290718720479,0.016056480235067196,0.010566971434120675
HLA-B,-0.031515993626718204,0.01018541570845898,0.11542251803327612,0.030032661354206725,0.01767320717856136
PDGFA,0.018491954388957167,0.03496477577557022,-0.051809458253574074,0.03560584287609161,0.045898411538803356
LAMA3,-0.019788692274091444,-0.02344219483663361,-0.031033571082389855,-0.025659340572399325,-0.020409531444941186
DKK1,,,0.14210347545102953,-0.04406268538447971,-0.01832715509525615
INHBA,-0.013709352435953226,-0.02719071802393952,0.09438406988249098,-0.03467915497456808,-0.016074908844550304
IL7,-0.026620137269601753,0.036308570735266145,0.04043675464263214,-0.019104677018984752,-0.019132675380878646
FABP5,-0.022617706140136862,-0.027568816142895785,-0.004147365618970567,-0.02071559253692286,0.06165842833505742
CCL4,0.035732125314118575,-0.01877904778647898,-0.02849146309777354,0.009549549117040871,-0.003333514219919971
FBN1,-0.03340225839788394,-0.03625825419250102,-0.020195370711058275,-0.01456079247889444,-0.021866084001994093
TCTN1,0.06806813816912623,0.06717421240576321,-0.04644634273658917,0.04247671927533074,-0.05125137406739747
NCR3LG1,,,,,-0.019132685539662936
BMP7,-0.008695234148408592,-0.01890908915764706,0.01795360547394278,0.038065539141040924,-0.0189745373560613
NLGN2,-0.024248890115902515,-0.022639479583808873,-0.051566150041720694,-0.02814900492895019,-0.017109250030461827
CCL25,,0.03613765530042969,,,
NPNT,-0.007684155960650353,0.031730475271566166,-0.04337387530509361,0.03015588701620499,0.015454852890865844
KITLG,-0.009441875163161325,0.01206759057326338,-0.07825876177098949,-0.06592587647939122,0.055374737253862286
MADCAM1,-0.025574347170991513,-0.026519135105049895,0.012156170404021761,0.10235801199153416,0.014430345381004581
F12,0.012586881406332013,0.006669099453231694,-0.03695582510073929,-0.04688441713146508,0.13912822426417004
S100B,0.01624390524622225,0.014258807081850886,-0.11410271513324231,0.02547777600651314,-0.021128839914373074
IL27,,-0.02645868081327621,-0.01319601974189939,,
CD99,0.0012742845241277311,-0.009157142443788104,0.0031053554101834854,0.059693063239819814,0.05953081431002257
PDGFB,0.019733000816576567,0.016975071726233765,0.03314755782135015,-0.00499281458794842,-0.04099670725934644
CLEC2D,-0.01773470707157578,-0.02257048269673796,0.007372331995643754,-0.04393845223744621,-0.04176694352028095
F8,0.012546343014308455,-0.0017521968561033659,-0.042892559543406775,0.036556867905507696,0.07794435289146298
C3,0.028279944182381587,-0.024720948622956956,0.03849562639905128,0.015890540869889842,0.009589238905358542
DLK2,-0.01548822454909864,0.012874855601801781,-0.02182107139338622,-0.03333855574025812,-0.020409539597286863
TSLP,-0.01412313661734289,-0.02966606541604549,0.0960026451781121,-0.01910468571745828,0.05589059740452103
OSM,-0.022128644597074455,-0.04176080636740384,0.0553714893196884,0.03195814471848548,-0.044384212507317604
SLPI,0.03275423233913859,-0.013882819787154183,0.008313372215594458,0.046048052168953656,0.015975128083891996
AFDN,0.08654669722934705,-0.012617036323051965,0.051975229467853705,0.013810561327741314,0.005733582010155154
KISS1,-0.03539096145087138,0.009244334796689917,,,
ULBP2,-0.034288787734672775,-0.021444041919532014,0.011123245767302106,-0.037803952164792376,-0.028617087568917236
ICAM4,0.05729432780860204,-0.01224853072333299,0.05099037582334664,,
TDGF1,,,,0.020200321875670585,
ANGPTL1,-0.015573789199181606,-0.03163964602180696,-0.012031227616535335,0.0753870821465356,-0.0176163490061921
LTBP1,0.03469038588561788,0.01968425077952396,0.10792907923436129,0.018074993289939494,0.04720817417900292
CD160,-0.01603943158833947,,,,
NTN4,-0.0010615117341525458,-0.0006838860648915417,-0.03116693074366646,0.026817733222772294,0.04869760368475037
APP,0.03310974927425443,0.03160998108760239,0.002522920715847762,0.001080409659197883,0.06501384576174267
RIMS2,0.07506678926397423,0.00766413217697469,-0.039830142397606294,0.027000975453852986,-0.02692052866513582
WNT7A,-0.03248537860903152,0.008049245778216,0.041239462392148145,0.025270289424902757,0.07206913732537328
GAST,,,,,-0.02208279912919291
GPI,-0.00750304314280978,-0.03383627502024406,0.050279854548723184,-0.042744053159219655,0.02940319310623562
IL1B,0.05483326138835619,-0.009321544440737024,0.07867563911732836,0.10142400377035442,-0.0099268507659278
HAS2,-0.03301472218196673,-0.020652776933202294,-0.02472978590551599,-0.033489529991850134,0.0001527636407559229
IL11,,0.07682500657610601,0.1707951653695704,-0.01910468143313401,-0.023210645876826648
SEMA4B,0.08193000446689808,-0.03212785950822534,-0.016957048292653792,0.07346158645841669,-0.03247319209135372
FGF12,0.0018002316349354285,0.018543147862342506,-0.10281037798010385,-0.022913025854737683,-0.012142512960598845
CP,0.05151475076827808,0.02690706099898111,0.031653896064953765,0.0022046496945713236,-0.04474960870553905
NLGN3,-0.02832630646782852,0.02984505591372738,-0.10285911282301323,-0.1077776055278448,0.0339016644057389
GZMB,-0.01412313661734289,-0.015566532711573853,-0.00036820643295072913,-0.03257553731675262,
PROC,-0.028827805992669417,-0.01952429772938163,-0.012873394410913876,-0.0162206772806272,0.04405966427561923
AGT,0.0274895302524418,-0.008656852275699414,-0.12438777245863236,-0.03526930117339415,0.015090510099936921
PTHLH,0.02275545714165941,-0.04394801253718914,0.030651951068989106,0.005294363361190606,-0.030667605904152292
COL1A1,-0.0018291965098112624,-0.03726646772823588,0.00899059725060605,0.029206694697181113,0.0036359524787367347
LAMB2,0.014924526336426554,0.022522898923924974,-0.03016997218143974,0.06360262436341575,0.048856791741895854
DSC2,0.06182717806175881,0.03880126765308741,0.02222144438947046,-0.020067353864629423,-0.051111719185702786
WNT5B,0.06230543827623079,0.0021693878119506795,-0.024612018856846277,-0.00688494978412307,-0.04425296209649246
LEFTY1,-0.016747706635759845,0.004516478586115206,0.03361793292203575,-0.02269923635265765,-0.03109923292164738
FGL1,,-0.013326837630403033,-0.013035645446144236,0.0008445640114333103,-0.011973660016648858
CXCL5,0.022558017567486995,-0.012248529388623185,0.02554641538912916,-0.02817834752667711,-0.04156961031006663
S100A1,-0.010497388218614899,0.012860532010515449,-0.07948971459565882,-0.0482556280142386,-0.06217474933873743
C4BPA,,0.01762900077754586,,,
NPTX1,0.009813326146322774,-0.02617975628148985,-0.030492351502581505,-0.02761236591383187,-0.018327150526184947
TGS1,0.042247391472707875,-0.03730055567988988,-0.03615169317124959,0.014341648598610122,0.007950472722200865
SST,-0.037711989593430396,0.012213389561368235,-0.03209637721492067,0.0011346125666811232,0.11405166198627172
IL34,-0.0313815113417345,-0.024444855147608573,0.05875336266827385,-0.0018353485144283958,0.04165933349316188
DHH,,,,-0.019347048362064044,0.032184966518493084
XCL2,,,0.08369540464620712,,
TF,0.020437318736144187,-0.01342736029949783,-0.04061193051959599,0.008409505739112203,-0.01168792603266003
IL33,-0.026916024272026856,0.05185988400845508,0.044030136183587684,0.019972577908703944,-0.03677408558602613
RBP4,0.07743830037574573,0.03603720700155787,-0.027081981603586304,0.019719883323299846,-0.024291307722475695
CCL19,-0.013283231721193072,,,0.01928300629118267,
CCL20,-0.01621923250620643,0.009228944433694942,0.1358378915389873,0.029879299868606646,-0.020409542551037708
NAMPT,0.028093934960514003,-0.02815328783796287,0.14236999881301515,-0.00285165151836766,-0.01777729062753348
