,MGH258,UKF243,UKF248,UKF251,UKF255,UKF259,UKF260,UKF266,UKF269,UKF275,UKF296,UKF304,UKF313,UKF334,ZH1007inf,ZH1007nec,ZH1019T1,ZH1019inf,ZH8811Abulk,ZH8811Bbulk,ZH8812bulk,ZH881T1,ZH881inf,ZH916T1,ZH916bulk,ZH916inf
IGFL3,,,,,,,,,0.06476449220913395,,,,,,,,,,,,0.04749326485583821,,,0.012448156827999683,,
BMP1,-0.028319023157302285,-0.010780681678970493,0.062298806356849215,0.01544125203181663,0.046999352636082334,-0.004360568844620928,0.04795162348989197,-0.0626414721456267,0.1274736731490621,0.005851257295216657,0.007757618557879428,0.011352309297975136,0.045036649433791265,0.03832765557860829,0.04981326860218361,0.024587023563761058,-0.06386928248981058,-0.008606614076133546,0.03454799337586726,0.007192524860527921,0.029864313660882033,0.037720658077717295,-0.06874474492055146,0.07600112918941754,0.04468637945773022,0.029787901090621263
NDP,0.04155211125418277,0.014874336644326521,-0.022860066979934788,-0.01679969738765198,0.07274861053741126,-0.004113083301353906,0.10529702501822355,0.07968148381916723,0.006498074957135797,0.04534828080948307,-0.011252341721838232,0.061186817205179746,0.01853908979343778,0.0959106817190918,0.11746908903867048,0.09282012142792923,-0.0210354449534252,0.006006634325879922,0.08133482503408045,0.04602194532643055,-0.05694655307925632,-0.01672366666637253,-0.01031265945141478,0.051303217075732245,-0.007517803244475602,0.027274658329059676
TNFSF18,0.07109667325127085,0.05235990497027594,0.0007887490387240586,-0.02896680254064968,,,,-0.026692721819716537,-0.017908449508819566,0.013726930720852504,,,,,-0.004061557433603294,,0.08881816306786086,,,,-0.015517554578069073,,0.024728430334843125,0.07858481236937684,0.00021768821217129313,
IL36G,,,,,,,,,,,,,,0.07665906590696168,,,,,,,,,,,,
RTN4,-0.0007802731583499624,-0.012772021243862001,0.0746752287992974,0.04899348563739982,-0.002202818919691222,-0.009950468296986726,0.008129496662264809,-0.006979810586412837,-0.12980823005489314,-0.013406398464871697,0.05765639538618697,0.0507319933857977,-0.02392838754539909,-0.04545094662005011,0.07080300532478508,-0.06129883478826846,-0.01973815146127878,0.0313394950200392,-0.01899311549909823,-0.00503467730993417,0.014622625292525051,0.008122342831723077,-0.04540756422438702,-0.011348959070845696,0.07175581705032123,0.09184755200591092
HEBP1,0.04433376143737885,-0.035381606994340446,0.07227190865266005,0.03817602326797773,0.053726069683088386,0.018933417354979793,0.09602003812487357,-0.02455808033026224,0.1046348575580787,0.05745673911738536,-0.02592769676594103,0.01987302897591561,0.023586257790868734,-0.018651976722796403,0.10310869102382153,0.05521520208742847,-0.07403128743733593,-0.10457493653737844,0.09202620489905265,0.00490823266253737,0.024794821441493423,-0.0075867058028614666,-0.028474376628197715,0.03379432217039364,0.02462034678877162,0.04207371596667258
WNT7B,0.04667962916688827,0.05131268143170558,0.038378202835505984,0.005255325196599496,0.05295392850167879,-0.01689737237001712,0.05415752791901683,-0.01231401164290571,-0.06874350026505412,-0.0379511051901046,0.07547983724102003,,0.03113292680107365,0.006481448759382055,0.051809376505598505,0.07377945861233486,,0.03951125185143228,0.043628189926163706,-0.023179503269497467,-0.014200594614917895,-0.051987984939643746,-0.03223876245483401,0.0010963549387660565,0.07191229749637867,0.14718174377329774
PTMA,0.04658645435401097,-0.05621062483425481,0.012016661821850412,-0.005040524669783832,0.10613175435355358,-0.03562771259640513,-0.0036937388006263927,0.007903716751676748,-0.0531926338075852,-0.03482199558847798,-0.011324343741303018,-0.0013978015227789622,0.03208431572405268,0.030130039222480975,0.06505371376571854,-0.035698151763593755,-0.06825806364878796,0.040797860895191516,-0.051974478217291877,-0.017289878584731803,0.017897014138596967,0.054592597973308336,-0.04755647514558358,0.07573471818586595,-0.042093842715361686,0.08810366332916056
FASLG,0.04414779338945884,,,,,,,,,,,,,,,,,,,,,,,-0.027945471773043847,,
CEACAM1,0.08219439329806119,,0.034153704435383785,-0.018120341925625196,,0.013192006985140163,0.036613560715677076,,-0.0269167650005972,-0.008357627287874701,,,,,,-0.00943654667224095,-0.012828302443166427,-0.010877840742209587,-0.01195329574602174,-0.020870797321151487,-0.0328375941394507,0.04795512004343061,,0.05028951912760974,,
PDAP1,0.01244281874653857,0.013851471976136934,-0.012779770848596463,-0.03685164951882066,0.0270342562219956,-0.0018163553543142901,-0.031655609373727515,0.03395258662148808,0.08644420973655094,-0.009908747076829049,0.044993271369740094,-0.006258721529486436,0.003767000147914392,0.01999125831498893,0.050382637553048025,-0.015005023585638023,-0.004170193253479824,0.028113713940600093,0.03254160447777737,-0.06058750860686784,0.06073134825984245,-0.007120538078819902,0.07866907920326235,-0.014782622471146104,-0.03917068187014664,0.057991244622291264
QDPR,0.009464316756815859,0.088992183451295,0.023392217731468865,0.018053358895690288,0.05468804571729647,0.03880304508729559,0.06557172664607855,0.056054261416072296,-0.13679927605949654,0.00015307236937723475,0.01691582959718501,-0.02019994168585772,0.0013624767284326096,-0.04035837589087333,-0.06374161273425384,0.05224349648481194,-0.008091193756542209,-0.02908939150370043,0.03916467709651547,0.07760389724322501,0.08755879780975596,-0.03309884610678233,0.02296258136482419,0.09279794064733236,0.0022104110478748393,0.07416688989943968
POMC,0.004251228381826991,0.09274348829794477,0.017352909945616335,0.019027701204775763,,0.07382324498966328,0.04068703843389737,-0.013769677038237917,0.06512176049491256,-0.019747328460424225,0.006303705280111957,0.061820978931505836,-0.005624995220409094,-0.035237824427003024,0.0552081560800044,0.07659266701407055,0.04588402590998703,0.02359653091469113,0.04413979715542274,0.008050445630332593,0.05600890276217536,0.03394652046159247,,0.05341714056006314,0.05181519632655557,-0.07076958349061724
CCL18,,0.014123593997030172,-0.029980550837630647,,,,,,,,,-0.028852983272237696,0.07273800288779729,,,-0.05284041290708406,,0.051845777861383134,0.04363317126968706,-0.052814256832739,,-0.04514786529843251,,,,
CCL17,,,,,,0.029653524243024035,,,,0.008953180468104421,-0.028565428369892246,,,-0.029356045074950685,,,,,0.03294168452739598,0.0573840668875836,0.00534831926547964,,,-0.054332087587632936,,
VEGFD,,-0.040055115030993745,-0.01762128978187281,-0.0006411247945330349,,-0.058827183099862165,0.05075487867108058,,-0.02881648683515172,0.05186583269788328,-0.02095308716319706,0.03419276194718707,-0.016733088473773736,0.05549248338865407,,-0.03706845700217562,-0.047896142524334176,,,0.005340102360085506,-0.03481646903356976,,,,,
TNFSF13,,,-0.030969285192799945,,,0.10423434906555691,,0.061863463965955,,,,,,,,,,,0.0368045453451443,0.024613187447143654,-0.02813828283022802,0.03343886855652036,,0.06807685095158474,-0.004714777826670149,
WNT5A,0.02117167950988019,0.020014263847489663,0.004006615252328997,0.053741113026513736,0.0339232524793213,-0.031992059237057016,0.07836258285513746,-0.02363208181422777,0.14045453792008558,0.04384770415622724,-0.04510738023892076,-0.018365397905457576,0.04812096140793268,-0.03151949112174427,0.012600587211438702,0.01280690885364849,-0.09695968249990224,0.06602535401575406,-0.05353639279438453,0.016869291481003416,0.08355504697630349,-0.0020811440782711075,0.012264957182327212,0.03835007454263845,-0.032790402758635304,-0.07270232101227916
CXCL8,,-0.013960323009462983,-0.044654763129152376,-0.024301557231910895,-0.09849758282340249,-0.08919757275704951,-0.12813031264491606,-0.026835094891840307,0.07506706793264821,-0.010990094976449477,0.04252436816082007,0.02437573849431031,0.03359870745496912,0.008724240724711058,,-0.0775573164967822,0.07986962351211487,0.08461293201441585,-0.08210841838153035,-0.11252458461086313,0.004639221257586307,0.0028521429722491863,0.07187725265253396,0.003451475266936126,-0.06722809400285154,0.0077217282443528025
GRN,-0.04397773444239372,-0.006560435370298109,0.04214147070119135,0.009197319996531467,0.04647746848541276,-0.025947258162212043,0.025847778036432727,-0.010739037544313575,0.1477517612961107,0.0015716728313300344,-0.041341987591560665,-0.013133276606419662,-0.014897444909532731,0.034134145343960566,0.022475263207218415,0.04856104913448855,0.10597086678138948,0.03759536747486929,0.07032419557543303,0.013135607179498791,0.01316424228776767,-0.02263016385612582,0.016456297470958343,0.03130746023516438,0.025227625527710323,0.046769756555063206
MIA,0.08519996753241274,0.039698573203317614,-0.018414620925935564,-0.023081454086889948,-0.008881678375377821,0.03599464676731048,-0.036463922464818,0.05160890980660159,0.07421723743748233,0.01699968963968498,-0.02382972396906774,,-0.003161579883069762,-0.04308835330861213,0.062435204471470794,0.03634188857672462,0.11410967699423595,0.026458886360022017,0.04797612407493055,0.15805304490531716,-0.06921149245644438,0.007148690774577415,,0.0948553045274832,0.08749293586319898,
COL4A4,0.02926123912884411,0.10748299487748704,0.07843940865927197,0.0870977984499217,0.15452506355089804,-0.020667855716764768,0.029813724382952263,-0.024629739048732068,-0.033015123286822295,-0.034283886716233204,-0.0025543053460186896,,,0.023764189788190032,,,-0.017000403638991145,0.08413943531209499,0.00281420932609138,0.03678507095480992,0.010325053267518806,0.00536275280601292,,0.07968269159770265,-0.039575982459921805,
TAC1,-0.03812619444493308,0.04528331007667383,0.02830552113730255,-0.05429709019832861,0.00947814685048617,-0.034475194763886934,0.0320431325434323,0.09932053669670217,-0.12797770608520262,0.022881575937094063,0.021961549791864043,0.051478094101874414,,-0.0486463811241885,,,,,,,,0.023141605856102625,-0.0066134381870116945,-0.022613651078385606,0.06149431630931843,0.029088552921363156
RARRES2,0.043189186759885055,-0.05570725501060441,-0.02959936441564468,-0.016722669588535938,0.024526207522278506,0.0020292668994037343,-0.06891790072305012,0.026536281846305538,0.17679860247993553,0.09151421783799965,0.0010887584140273124,0.02792675411230891,-0.03782021441249573,0.04576765271258111,0.02084567038889375,0.08858507268802952,-0.10714487981493899,0.04471293321767084,0.0010178545076141316,0.000985505042175754,0.009682613568843612,-0.054330599567737274,-0.04506467919720963,0.010888152018217863,-0.01667053557938397,0.020328594847033997
FGF7,0.06848307213258958,0.042584451125634304,,-0.005805057365530062,0.03933858606916141,0.0021735884157360703,0.038678871764725245,0.004830353723233817,0.046746916930941775,-0.019997664589226968,0.08071664865551713,0.04681540747980502,0.06199905441415304,0.022804262141711103,-0.044706047450405836,0.06735338808494232,0.045008830656625476,-0.03400841032762531,0.047111825497480664,0.10476566131921408,0.03855018505043595,-0.04077974340161391,-0.11918548115434553,0.10414077708036351,-0.04886527254636055,-0.08270515036662257
EFNA2,,,,,,,,,,,,,,,,,,,,0.017842597735614096,,,,,,
HBEGF,0.037824593028706076,-0.003990647954473725,0.05170589303808535,-0.002604834309874007,0.009309618160202288,-0.06837347207735481,-0.06036657413121906,-0.0076135863729317995,0.06594676022631167,-0.008838937068194205,0.027489534743002225,0.03968066761021704,0.03709455865785508,0.0035101155671144017,0.12671280509662197,-0.014545414586950816,0.008394707023448337,0.06936534365435432,0.026488504858089477,0.04826243763571585,-0.028894661729021578,0.007779291142607077,-0.02149846048337806,0.04272820707755982,0.03516105367674492,0.0069434599744532645
CSF3,,-0.004020632365520483,,,-0.03296888377223606,-0.029610075926151634,-0.06108521099189029,,0.08455825107355032,,,,0.03962952975484656,,,,,,0.015210712367245109,-0.09130751208709133,,-0.06925529642262558,-0.05746032618130778,-0.0205993059822577,-0.04564943478427235,
PI3,,-0.009103815869528993,-0.0641634528233458,,-0.07810789661801486,-0.03357108128862366,-0.06467568871107492,,0.06274992822666331,,,,,,,-0.00426976592718327,,,-0.03894922042866233,-0.1019594339373408,0.0020669401602276282,-0.018381807868468013,,-0.01994397543490185,-0.025031716645805866,
PCSK1N,-0.018145172665715588,0.07994345011559333,0.078444118633229,-0.00761394967865352,0.10168247232818206,0.011358033662193658,0.023705002645157822,-0.025642638682004705,-0.07309415577435076,0.005178935013341439,0.03957840112549756,0.018234682838504768,-0.002500353075948369,-0.010054532139663128,0.05916281351684967,0.016532776701470596,0.05621987981778706,-0.07889497043796985,-0.012291477908606737,0.02816052822292231,0.0076542799869464655,0.024087031118682715,-0.011896403922906688,0.04306475784360717,0.08329316409947539,-0.07405639035152804
NTS,,,,,,,0.006396114197974599,-0.030067315300373917,-0.023833660130651073,-0.027976212906303345,-0.044384440203616024,0.054246309608082265,,,,,,,-0.05752124878474357,0.01148390364886629,,0.08839042276659217,,0.014270011956859771,,
SFRP1,-0.00966750215278531,0.17144899482156828,0.00019113775564620354,0.11085908180092577,,-0.003829998257837077,-0.016359496699414982,-0.018037128448699057,0.040748185339725636,0.009582854944409141,-0.028565428657569572,-0.025783728742841985,0.03405324054623464,0.055743735761223885,-0.010265030167266318,0.11892994203678103,-0.04954331284569789,0.008923672202859166,0.04854750861732377,0.015263214562939399,0.10164446965986652,-0.0303864096977505,0.049787582764015056,-0.0030820047588284672,0.05167207018076728,0.10099236103356336
CXCL13,,,,0.08451889799014582,0.06338581516900633,,0.055270077588324175,,,,,,0.03871553409712721,,,,,,-0.004521115200906894,-0.005964365942316179,,0.03880166629999785,,,-0.040579542708789065,
MICA,0.022732825976630008,-0.09141483409161513,0.03200540435241835,-0.019731374335571438,0.042797663216124014,-0.0010729481305283592,-0.019019683879465038,0.0017351093110174122,0.008590860043799194,0.04475547717596953,-0.019305047712988577,0.07543358754647628,0.0037332957353088917,-0.002223898040878489,0.116590256817629,0.11707257674704269,-0.008093742566040193,0.05659002430245126,-0.02346209801530889,0.038643338727438574,0.0249795087435832,0.013699664372162803,-0.02288763698932763,0.0649354251878586,-0.002211874488163716,0.09836302499087565
TG,0.05924003563543283,-0.042208777735603796,-0.003537448919129546,0.04116487265907938,,-0.02528006139690465,0.0559285034239386,0.06481431890502891,0.05712165146551002,-0.03890783665498034,-0.02067267646245823,,0.03314764767486731,0.01645584194384373,-0.04028680643402357,0.03851479771791563,-0.018617977752488343,0.044100218180975544,0.04863853335261789,-0.02643332207341954,,0.026098245409332657,,-0.02792031515151176,-0.00537251860942627,
ADA,-0.019595469228020065,0.0337837713904322,0.01740370274281589,0.019289344580463302,0.04950165544349878,-0.014256601689795414,0.014549116716983673,0.037500541202385364,0.06676481816483007,0.002444333053026163,-0.033574089072779804,-0.01248701015450932,0.011498253638280729,0.04062692344753746,0.014578006062218126,0.0841649763040386,0.07493966437792271,-0.006520698968839372,-0.0254221466631959,0.08078461360763989,-0.009014692882071376,-0.05291594797749968,-0.04002852491636179,0.06252690219880049,-0.013383979561572048,-0.010533214501131165
LAMC3,0.053605297686222735,0.06276401839737854,0.01924944128974074,-0.04381654154337031,-0.00036659883192767263,0.01538334497957703,0.06373878672849342,0.021800568104732864,0.16440920739147977,-0.01238785807154109,-0.027783479763649633,0.10647432755796499,-0.013429806764680877,0.013805165534281455,0.11327850795128627,0.06690059584269108,0.08764677811604439,0.11486349540506799,0.034877862872876995,0.08233919336870012,-0.1254507779983736,0.007012457889362302,0.03596633394487357,0.09075562715135616,0.048782287510635326,-0.03642234339413783
CCL7,,,-0.048331076138936384,,,0.04577338408826898,-0.018035693553878573,,,,,,,,,,,,-0.03804616570683569,,,,,-0.012350922848538205,-0.05040608281894552,
NGF,,0.023038071962382934,0.006240617370668241,,,-0.05281724987288137,-0.007534029984288491,0.053036341529562166,,,,0.013825242047441401,-0.03361795041062837,,,,-0.033528936090395554,0.10567110389117759,-0.00275698866776486,-0.018666809951572425,,0.020175095026453933,,0.006683643498394646,0.05647322862463854,
TNFSF15,,1.301870162693184e-05,,,,-0.0023717531080317635,-0.030249089432672356,-0.003476885443820882,,,,,-0.00038129816545547703,,0.06478199608458557,,-0.0580394212638373,-0.07713258725472757,-0.021647951751599462,,,0.04953282830393496,,0.052797007541820776,0.024466584299493013,
HMGB1,0.013214595526353864,0.05135505502898243,0.008303186906802184,0.016541926929655927,0.06490077694940788,-0.000105428002773447,0.019976873533941005,-0.0141609210028228,0.10663411287766364,0.03104809168536571,-0.009860449639586464,-0.039114398048552386,0.012350926932411046,-0.06393353610616928,-0.006034049408485589,0.012630503581613875,-0.07852024125691345,-0.062156537457645836,0.0015558441277464283,-0.015243075557824667,0.0067127667608566,0.012909323887002347,-0.046151843059854356,0.00441743073377687,0.10133517861012374,0.012972110425363878
ITGB3BP,0.04758713595124371,0.030578522193421834,0.024507859081575878,0.005077564410283583,0.052229802270292225,-0.02758754232668691,0.006941187852885298,0.04243790459468161,0.08451368823152156,-0.029682582348656523,0.018618438033541313,0.04619938860232593,0.021883269390423465,0.03260209887106097,-0.030957852658773766,0.02435823053669175,0.06559317922735111,0.08217126993443057,0.026487016738940387,0.005345643492066232,-0.027925992290038275,-0.022033463209057302,0.03923792657996491,-0.00953693474830326,0.028590503844235608,-0.07224159495747441
AANAT,,0.06753803929987877,0.023863428257140634,,,-0.036421594807266186,0.015752587894876588,,-0.017911273292154268,0.005830031957945818,-0.023829725294537828,0.019420733884510082,,-0.0035517807400750664,,0.013804297273279113,,0.05351119290896816,0.027231006303776825,0.021622984406758736,0.07003854698994687,,,0.015687869210575,0.13981605693397683,
RELN,-0.03687036698410434,-0.031032600873211965,0.006073336326973804,-0.02149936200113563,-0.037128000528288206,-0.027746012998097088,0.10198351200172237,-0.025612669538942215,-0.061799804842858054,-0.001286237987578478,0.09061629148614164,0.07429219660518693,,0.07006343314232116,,,0.042790296712547415,,,,-0.00032083958707273023,-0.043678672896065814,0.03609864886397241,,0.04808934282099203,-0.06343417700088454
IL15,0.006864665352225584,-0.05884644568866537,0.016959327613762495,-0.010924413823817591,,-0.025487214254531865,0.05229355129243728,0.08902860790553795,-0.028546691676688277,0.00981222904608765,0.00031982070622447404,0.05807115683810829,-0.013558830222832295,-0.027435150796826187,-0.019789119786680062,-0.06516314632495766,0.007897213084212939,-0.056745737929290885,0.03152777524308882,-0.008520442790329345,-0.06789727578392298,-0.03520860175045781,-0.0108936970362949,0.049014271811488916,0.005691686570370012,
UTS2,,,,,,,,,0.09316097295032975,,,,,,-0.048654087839486805,0.0868745111022299,,,-0.0054849854202636515,,,,,,,
BSG,0.019224428921006377,-0.04037991258801882,0.027695162638741878,-0.037909696786401666,0.05907508746294632,0.03222345903173121,0.02568811298154587,-0.025186608387635884,0.0439549884422713,-0.009050002732360249,-0.04497567985826567,0.05641257970090209,-0.04065946355381674,0.07693082231173334,0.08539651760993656,-0.033425125534678794,0.016613204922853272,0.04458036889800814,-0.0021626289464620274,0.013039158599354905,-0.023588874295936,-0.034624563086774605,-0.05442465593788869,0.073551340648703,0.12608277078514385,-0.07863930165448586
ADAMTS3,0.035578056543444196,-0.03626963802962893,0.03640054012175814,0.03473889580012315,,0.00626105605505056,0.019891820924637465,-0.014205192599893612,0.14088415682483316,-0.020144026305385466,-0.03921426273424037,-0.05054090794101203,0.03729285028909793,0.021022888266248946,0.03443295351709454,0.006525761321566127,,-0.06409600688730185,0.0859134424494042,0.08936904091691486,-0.01867143471349553,0.0007495552957238043,0.11093112667592306,0.07040761428344304,-0.02592112879723076,
CD34,0.019472571393108488,0.03467753866193413,0.037625880653578664,-0.03322565657963213,-0.013310661036160132,-0.042394436831635844,0.07720807140173129,0.02229354410413224,0.08814597246565967,-0.045620087046321235,-0.00425147411039203,-0.009804497510324833,0.024255083495687776,-0.023944737090370025,0.10691056880696717,0.09091159385396928,-0.0025674102305336967,0.011764334071510483,0.05827007723157799,0.02467116902244152,-0.023483620132337922,0.005387773145392899,0.14938605814225006,0.11898657960573807,0.0073017711941037134,0.024483355581368504
CCL23,,,,,,,,,-0.025064092400486477,,,,,,-0.025870070868898674,,,,,,,,,,,
PLAT,0.017113095925796913,-0.01662005314446127,0.046317137634586406,-0.027739400545648267,0.12633187980586866,-0.02833492419530914,0.0061176035994511295,-0.041364911380777476,0.1618110724105897,-0.008537417798237362,0.010539845593788687,0.06821523332743568,-0.002336162980354695,0.031852436407190085,0.10235613306586717,0.07342588201285934,-0.025511533234437157,-0.04843570883264943,0.02869748470718689,0.12241913345319716,-0.024444282830230948,-0.04139636330139623,0.006409428873735238,0.0737720010266565,0.13743332474207365,0.013675063290027163
NTF3,,,,,,,,,,,0.05475387461618205,,-0.021579647209010205,,,,,,-0.01064616834688455,0.12864842171314947,,-0.03126052195046122,,,,
LTA,,,,0.017045293617927643,,0.014796630366136829,,,,-0.03949906063515299,,,,0.13013334731650827,,,,,,,,,,-0.032270721340554594,,
CKLF,0.023112991193075316,-0.003225743956380369,0.015859608074470986,-0.012909539975015804,-0.03405544671848113,-0.00340775948227197,0.033346298348607514,0.011679113252120005,0.13652504612930036,0.06555829526996433,-0.02913677980769689,0.027868183569323378,-0.017172950195172888,0.009968442398071334,0.04647137865763408,-0.03804157551481616,-0.018075107256363545,0.03802808348132964,0.04252618532731993,0.13674825093237217,-0.017795770523449057,-0.015918090065728894,0.12141257888198073,0.061077329618551994,-0.015499378148678113,-0.11507534983877443
APELA,,,,,,,,,,,,,-0.006832009277408996,,,,,,,,,,,,,
CD24,0.0226635953447558,-0.07087346581361174,0.040112457937033906,-0.002650192363485502,0.04578008571955354,-0.015450284768997246,0.06274240351872305,0.00632406280044925,0.03665658519991009,0.009447607900095056,-0.07693315635375562,0.03675464593377205,0.09489870536370018,0.0378417570634681,0.04438058726654186,0.09401554827766831,-0.06106264238782659,0.08680934811331546,-0.015569964494080383,0.07548085552518574,-0.03143307386496877,0.02454681385086794,-0.07192203187375858,0.03194201157663308,0.044131416352421605,0.048853093906354436
HSP90AA1,0.0018631843337987247,0.037328532086282964,0.009720904133158202,-0.012621742811081272,-0.06909368195040484,-0.021752067055428433,-0.0074884985980949075,0.05343192597829445,-0.10419956161637467,0.02416542232929736,-0.011819866445934916,0.030444115314759938,-0.024219317341589157,-0.03312030738006613,0.05040486194940511,-0.0771780602308644,-0.04878953805486937,-0.004735569123937219,-0.1195049806172765,-0.16007375304690555,0.11497380040284821,0.008668330801939272,-0.013676551173025894,-0.07446554883319695,0.027948210172558035,0.04328624881884693
BMP4,0.039842671168639265,0.03124242112822964,0.02949119241747141,-0.0192086266268585,0.012610542246534226,0.0027142669999983436,0.06824310137748836,0.029360944689265003,-0.03696644409768621,-0.006749258903295825,0.05065684020497656,-0.024345464358195408,-0.029445953250265923,-0.00886717698719319,0.03313819927963838,-0.03106842703953004,0.03782036374345302,0.0025571317379764836,0.012809095166848843,0.023106134006508378,0.026378420612077912,0.04646016478666801,,0.07236670294183079,0.044622015658514334,
SCGB3A1,,,0.07953765844908103,,0.025631562196020065,,0.02910746398839648,-0.004676552286860402,,,-0.02010060635708583,0.048516403390591,-0.009209329337695018,0.0011681087327735078,0.0033049575391138255,0.020976608266928817,-0.0022734801630494576,,0.034128456747735514,-0.0013272709784958687,,0.0649957459873895,,0.07320600856736979,0.04745861519575835,
IGFBP4,0.014830884595356173,-0.02230375099684333,0.020865631138768867,0.009241110408394268,0.020702780174418883,-0.030925678312033727,0.0528969873186644,0.027154335106908237,0.12500881626453714,0.01506903500139697,-0.03443912916865278,0.06795613185428806,0.037022693500991695,0.053253269504528564,0.04944573636071388,0.004994044796339171,0.10878381424924165,-0.018495950191162992,0.02283487358643112,-0.10850938299225385,-0.0024283783210722683,0.0017328969486265994,0.04524374700880506,0.07071954275359105,0.038579127494383574,0.0597648949770024
RSPO4,,0.058724857003416286,,0.05317182685299076,,-0.01497126561381896,0.08499565392475834,,,0.05499860701748907,-0.020100603416917443,,,0.03459947047170226,,,0.07550619177287977,,,,,0.0454875938715672,,0.04288871105370753,-0.004860668414803213,
LEFTY2,-0.047674538153337984,0.029889423499948515,0.03765585361627094,-0.01834288917639803,0.0475148844663231,0.03279842170414063,0.11652098124438709,0.00046582028960426915,0.13434714763202155,-0.005954866268392581,-0.022040557482431184,0.013243602531469155,-0.03221094747383689,-0.045085485526745614,0.058371878170888986,0.11299051950381675,,-0.012055778551773361,-0.01608252849087037,0.03867720056479345,-0.007253838992083522,-0.003454902034389446,0.029136104694312107,-0.0057398395762131415,0.09822305833109732,
PF4,,,0.048200637020005696,-0.016482915484853138,,-0.012936684624899632,,,,,,,,,,,,,,-0.03969718899341972,,,,0.039077911301613893,-0.022016462429238704,
ANGPTL2,-0.030791800194121515,0.11121946971753205,-0.0044484287520852135,0.01177450705129785,-0.006097876139394192,0.03755589287464485,0.039264490480862856,0.02215724361201652,0.12970161151616805,0.009847350270578065,-0.004765842403729336,0.0536853274098568,0.003063044046351556,0.007360765791667849,0.07570215990798243,0.006613343559521875,0.06380264784095396,0.025730862049861913,0.14916393901104247,0.1046071125712906,-0.02276993002251782,0.019369136793087022,0.12385316195809352,0.10472693885431454,0.14613857249543682,-0.07494755900314104
LRIG2,0.04355995346483105,0.04428733970405707,-0.014883570714485683,0.033876014441769374,0.03873322518733648,0.008573485469756054,0.0352065176183271,-0.007205552893209068,0.0640338224405155,-0.03080926758352363,-0.002500087873981209,0.027626601154246956,0.09570982111093297,0.026101460941721808,0.0226510973200453,-0.0020659200068096693,0.08994494923643466,-0.04018566152462003,0.0660479687732857,0.1431969479968937,0.048986562068249216,0.021809746770794062,0.07624453154389345,0.07145022422300124,0.09728276615523901,0.02160260754697959
ICOSLG,-0.012767199987379177,0.009609791623253629,0.031573732198521436,-0.03682183205403533,0.019579622029376537,0.006193897396418005,0.04013888904588595,-0.008176742244069904,0.03974546898237376,-0.014074735764889438,0.10755128618871483,0.0013195850026042376,0.031057145594150175,0.037319137706690465,-0.000880208302500055,-0.016715215655559786,0.1289737013223922,0.06519505378642211,0.06381863821348079,0.08565466909780754,-0.011683593646285862,0.027738099976223285,-0.0414946477138547,0.10716297504301149,0.034360591888076386,-0.0486793477633486
WIF1,,0.0766842056883032,-0.00898733398181209,,-0.05714645560541811,,0.09139434686016791,-0.012387479218496821,-0.1051858914257904,0.0684340963092471,0.0996510382549937,-0.035589836227387706,,0.009029195531760391,,,,,,,,0.035071643895986604,-0.07760200933014655,,-0.056103109126318745,-0.0724199117872873
NPPC,0.005731488409538354,-0.033986848773770166,-0.025050800819104223,,0.0032520743967146175,-0.024002019933337747,0.03072754833505566,0.022038621601205254,0.019196158192997578,0.005089631871433995,-0.01735207498510144,-0.052093833508811374,,0.04231760464792713,0.10399643232143727,-0.06190354912160768,-0.018131119884923833,0.10520263456268164,0.009531239274089305,0.05845516985326392,0.003218239999986472,-0.009392782975498894,-0.07751288859278052,,0.057801834428252145,-0.012066161233741957
LYZ,0.024918946117689033,-0.06987912147039699,-0.030747089279548247,-0.00981058536041337,0.03567044805165521,0.020276812472851503,-0.020303911347401178,0.016384004761996626,0.13248240450330556,0.017960522220624976,-0.02385422928996641,-0.02013172789548573,0.019890668103054038,0.06719046357401069,0.0496728105852229,-0.04068070662895503,-0.08268460957724265,0.040798613470563086,0.042442429519671816,0.022963615431063667,0.05167618164167257,0.0037872817572509616,0.0160130276458015,0.03651904473685053,-0.025287427124104287,-0.06233242010037584
EREG,,,,,0.006323863768957392,,-0.04063557765813103,,,,,0.015623149414177783,-0.03766567559683438,,,,,,0.057746701563568294,0.000627835679722406,,-0.043304196785116066,,0.04713180555616525,-0.013091990472800297,
SPTAN1,0.01165171301522799,0.11375979612246319,0.006889683839546917,-0.014018085662917961,0.0070819497792307,0.04400761786589399,0.10429297214847584,-0.02047636642880593,-0.05760701127339814,-0.011003563269716613,-0.027311757525101912,0.041038711258618195,0.0032921857751485816,0.03142765853851175,0.04054189300233845,0.026963991851657047,2.4578534758627337e-06,-0.013154544763571911,0.01897205954760825,0.06279061298976532,0.008098562598776076,-0.03282091193366886,-0.006926015082486587,0.05811083654002098,0.06476328663365845,-0.12075047743230674
PTH2,,,,,,,,,,,,,,,,,,,,,,0.09656446454291952,,,,
LIPC,-0.006724205914218347,0.0819223542629041,-0.007374862726457483,-0.02480766872709092,,-0.019114671086042295,0.05630756003137313,0.0012213802620313892,-0.025954546887577704,0.037012554784573395,,-0.015290862027344481,-0.015359531449421256,-0.03186976992090609,0.021372046044542042,-0.06313436744671623,-0.0010943340164590626,-0.021628205707963203,,,-0.05999638133906905,,,0.05967830381006356,-0.028620170285561356,
COL8A1,0.05441729900657877,-0.015338411121115801,0.0204159827393546,-0.01985710148319327,-0.041162253085503975,-0.01264126538826605,-0.011797753691061437,-0.0034357038264437156,0.08150534577996009,-0.025197705733511207,0.002070466032108674,-0.0427065002331338,-0.037660704987892445,0.05071543507023161,0.07291150555842005,-0.0180505723195919,-0.004890544141581496,0.031945802843518216,0.059831310267758106,0.1301212550953918,0.04478102303294046,-0.04010297486579489,0.04754457851279922,-0.007716642147946487,0.06354205564196284,
GSTM2,-0.05055872302465737,0.07363114522838776,-0.009556044944838946,0.055282450683313875,0.07583669660977019,-0.011168217118470882,-0.0327182778199937,-0.008441349144947333,0.054958995059306195,0.04599387390757841,-0.01460213784339194,0.015030297413152994,0.005777070950308685,0.0536909689453003,-0.02612787292656,0.027046536276048496,-0.0006335617576573578,0.019372621842871737,0.05404784788196054,0.07695961146203863,0.052279216591640074,-0.015412513717207957,0.013879426466254832,0.08269248119973081,0.06752304737368053,
IL4,,,,,,,,,,,,,,,,-0.07842037314266882,,,,,,,,,,
SPX,0.01737084642013368,0.08195625089587291,0.024008955145966567,0.09759211828557773,,-0.022229398228079046,0.021464694495663603,-0.026019357431218727,-0.059430723593959504,0.03251113704738264,1.8392507984294717e-05,0.05593726794184152,,0.017254526382667196,-0.05229567710348631,,,-0.01552569452146432,0.02295717652835194,0.11587971104904839,-0.01927635146000096,0.030161921106401417,0.07395179917468848,0.07029866990116422,-0.0037274293374485166,-0.028459183177482462
MFGE8,0.03485950024417431,-0.11911341597735389,-0.02552788839124383,0.02477067119939763,0.022999272322187674,-0.06737176175618287,0.0569810453264031,-0.04226671625122788,0.026816111386636764,-0.03427418216299502,0.01867055160270747,0.04141832013063862,0.009253122386921988,0.06588255438061874,0.06791505568185582,-0.034565679945201634,-0.05532761890132104,0.015533464941147993,0.01998557490147538,0.02023176748034061,-0.026983202339257627,-0.04240794906933542,0.03756650992563175,0.07023295074033709,0.03701266823142112,-0.011259374145319696
TGFA,0.04561734675664748,-0.034366455707696454,0.053088022951362716,-0.002018536960268672,0.012121857207073462,-0.05604291207229289,0.07109683137646877,0.027484787808090477,0.045964116045390746,0.0034407111389986107,-0.014896864694569825,-0.08005331316780477,-0.01957766302900038,0.054718829836829526,-0.052127696274065806,-0.0849794863858434,0.1237274084971726,-0.05304897147456087,0.021349247814779808,0.03368425576827869,-0.04903534152018123,0.03687506353338668,-0.047908500685420394,0.06191013476426343,0.06667269314004014,0.03400551351493602
SLIT2,0.05061630852725482,0.07775604008812863,-0.012091101757191048,-0.03513240455710803,-0.026193195410327594,-0.03854585972947454,-0.02916215927648841,0.0599624915122197,-0.03937652404788948,-0.0178650356253894,-0.0011832100701464339,0.0475604705475697,0.06632555371193843,-0.0011620065215855436,0.2367845363790023,0.03807806472382461,-0.047106260509045886,0.016067691518746395,0.053940813792230015,0.046649152882977454,0.009218671792797574,-0.04123544877567812,0.05318108421107792,-0.0025674798948441967,0.03434109308853358,0.03182191954931806
PLTP,0.018107104332419154,-0.022178950641849004,0.058395317677165055,0.005277989230118427,0.05009247398615728,0.024223586450793103,0.008046308496926776,-0.02166078897850197,0.08894586986610223,0.050249214240627456,-0.07960764287118773,-0.032358020698873495,0.014635892013976599,0.12093505108780134,-0.015671516237456183,-0.04764787556070408,-0.019930437794103445,0.03578460708158528,0.04499389928678949,-0.029616481141983557,-0.020133571499334493,-0.015258764123326883,0.046796636127318526,0.022663532994406592,0.05436468632353476,0.11527345113259876
APOD,-0.032477846295713854,0.04686616281624747,-0.032968952288925935,0.018875995157390822,0.026819973260226823,0.023423358434035788,0.061891654707469275,-0.03989658090535129,0.06179019205506058,0.04738840469271937,0.043019261218248735,0.045937672347829965,-0.05685529438949555,-0.009206525550665508,0.006034529655558608,-0.06494383416650654,0.11890496174070031,-0.03329656630784111,0.12271779690978316,0.10510921384616591,0.08337146748261945,0.048402495753524455,-0.04222724876707412,-0.08235633012856175,-0.010887712668200203,-0.009934048585133286
B2M,0.02283918316210936,0.03194231415336266,0.06029010084152895,0.011404880145318362,0.048981132969490714,0.0047046217017620365,-0.09634943459267739,0.007860844776346552,0.17457373994255782,0.040486311946585196,-0.02372006422747857,-0.01330926283370425,-0.0037888554414222276,0.03717377557440799,0.07438245979337278,0.05787728367224447,0.0031983329034675568,0.013404155817298995,0.0687066789204544,0.1287799286895777,0.005434849998045491,-0.0375723485429685,0.07172751464594128,-0.02981728159322294,0.03390887410759142,0.00881188618689262
OMG,0.022924622787236427,0.20153457388490353,0.012797927450279061,0.00564191314140302,0.049427692751794206,-0.029780332573548063,0.0820880985776392,0.009640559028139357,-0.0804671099193965,0.013268171293061974,-0.023035372468467676,-0.005324985250383325,0.043161314657162546,0.02873888688079396,0.08709999577991948,0.06712925752543454,0.017597294840466966,-0.07161313591605956,0.08986143587963002,0.15213716550009423,0.07978290016252301,0.033970209974188065,-0.06876400546479458,0.09823313684694254,0.10280709004163523,0.0386837752621551
CXCL3,-0.0012665926031029222,-0.04875780950225342,0.016429944510579865,-0.03388730558724615,0.007858596812357763,-0.038619588803658594,-0.017728569347615596,,0.0059021607783571,-0.018594892732747174,-0.02150339685712703,0.0011973540501850387,0.08643019156618176,-0.02630215283909567,0.04497371618778068,-0.023057007917305375,,,0.03895194524199034,-0.006345728084157901,0.03331208024960138,-0.00261698871913032,0.007898533677260509,0.011277700193815582,-0.08442016454942464,
CXCL10,-0.013028866275830763,-0.0007503374509464015,0.057814572346717996,0.012408068004427538,,0.03284526217361648,0.029057943534770116,0.048642614744583645,0.12786399986709868,0.03437643719254422,-0.03266523369616358,-0.0032992640557169936,0.03133904060662895,-0.033640871921846234,0.09441863560236155,-0.018065005967781385,-0.07546239583159814,0.027158501720553195,0.052692622100408266,-0.03010971427503196,0.017185348689757737,-0.0034150349137619107,,0.05311629830883895,0.0636874248608978,
RSPO3,,,-0.054412540991164285,,0.07732318130671577,0.004468258761748876,0.06696527295898082,0.03358390073320221,-0.051736546356195075,-0.0019463825423584671,0.03375579416747152,0.019309100173835806,,0.0641682769590564,,,,,0.059950086231989205,0.05822812739092676,,0.07427523154451422,0.08000658923155042,0.01639343491142854,0.02277057671889874,-0.013738170316195116
CORT,-0.010750945400939753,0.0031006830446847758,-0.012572565844022278,-0.029437443282037862,0.0037731109673308544,-0.023073276145474966,0.02836932353782171,0.03402432648392513,-0.058518972942991694,0.022838901046071353,-0.00887381466665002,0.04664175694392003,,0.03307535658739023,,,,,0.0314619684330007,0.01336371815518736,,0.00579011995041907,-0.07485707328553544,,,0.01140418541948173
NCAN,0.022034355758810697,0.13370943311881175,0.06066918647138419,-0.008841961453871486,0.04987772326587763,0.09948209193097342,0.08672801853777497,-0.013199915537921884,0.09003796239249084,-0.02181246190330859,0.012204039996036795,-0.02171307864022836,,-0.013704694019516656,-0.027647958159022934,0.0020467849248114417,0.09021947425549515,-0.09822387102307102,0.08911289390963875,0.1298470516133635,0.006570232094368592,0.0073485526016647575,0.020336160708003523,0.07646357017484498,0.12385589926488026,0.043591646751266304
PRG4,,0.03652704761653869,0.02454546960265709,,0.04644851591029361,0.0001376725055415744,0.029348338485110953,,-0.002650116689217409,0.01738366484867224,,,,-0.020508532344519218,,,,,0.05136117574413642,-0.038782923337416134,,-0.05401191186377457,,0.040414181854431595,0.07923893711969221,
ZG16B,,,-0.0349213687491982,-0.01983450984035658,,0.015748236266706052,,,0.016084794075819364,-0.0026366464104527506,,,-0.005308227186889127,,,,,-0.03433163477748407,,,,,,0.02069436540211202,-0.021094668801186142,
TGM2,-0.000541873370060618,-0.00852022075183812,-0.020219377224925436,-0.012831807779939306,0.024287254912463443,-0.050344021126852725,-0.06287841944746958,0.0469379305516301,0.061007700480240505,-0.03028992456470037,-0.03326209736104356,0.021830832400514706,0.05846585140857848,-0.020501143935893893,0.07025891466804032,-0.06099202081503194,0.06039992120968731,0.07471672627996122,0.04344839121362798,-0.011017611067765694,0.030796782659284413,0.013658974338247682,0.02457191877490531,0.03955875475760614,0.023993881358858795,0.004333821522374846
VEGFC,0.05601241565110218,0.037517083049054746,-0.07719158252452551,-0.02546827445256381,-0.03833458663157396,0.03697436054696365,-0.05376151785541132,0.05495084823196881,-0.04616973100642725,-0.035424085136753575,-0.016375375478731174,-0.046099738249185215,0.04147843171106921,0.011203923912983145,0.12123056147772077,-0.023105409958827632,0.048092242697162675,0.012300919549221271,-0.035451535949102796,-0.03871490522857185,0.04047993555406583,-0.05501461543096745,,0.07279580221623039,0.051206766001809075,
WNT6,,0.04215654955109545,-0.0023445544416699432,-0.018342889657798043,-0.01100726988918483,-0.018148502147492224,0.061750105370402174,0.02073542874939298,0.06168644265338729,-0.03206952542714588,,,-0.013214327361167465,0.0550626359023776,,0.09199071162757379,,0.006805725572514581,0.003673214002285324,0.08222806022385039,,0.0009276946546221301,,0.013738136959565907,-0.04826725828476761,
NRG4,,-0.0354613695535849,-0.044514617908925164,,-0.0034126778491881684,-0.008108956779983884,0.0006218104634422649,-0.014201466742255281,0.07570751560947228,-0.027132423177142543,0.016683002830841613,0.0016090068163587905,,-0.03825900186312714,,,0.08744653641839858,,,,-0.05089415761105833,-0.01833565499160037,,-0.017962690222137923,-0.0243390955285828,
PMCH,,,-0.01406831702946722,,,-0.06061792594438841,,,,0.007799682736626844,,,,,,,,,0.03682590318586999,0.10560291132650504,,-0.04099501103577638,,0.06506610761310261,0.070981160731273,
COL9A1,0.04053067409055448,0.004990293091714218,0.038142478901319984,-0.02948851393135964,0.0731333286999243,0.04678246118759362,0.06842387772054662,0.018273575833080976,0.06928492212183869,0.0061635183154366705,0.05496264008307849,0.05102770204876362,,0.008485616266734115,0.0761852876932655,0.01558937847883514,0.09960267037741062,-0.06431191176781756,0.06575153820820634,0.09850777842219353,-0.05068541483159962,-0.052141696611808355,,0.038644872062430544,0.11853408022278468,0.04318101448185705
GDF11,0.0738167505140242,0.05305270742727896,0.029028450555626258,0.07571036779314776,0.13674182114968214,0.03567311324778609,0.02767739324371624,-0.005677286156157215,0.04203617486811514,-0.05941441482451796,-0.009277743299403155,-0.03544926086919711,0.03174724225732607,0.048972831922442076,0.05204148445782938,-0.055827202562980176,-0.05514328744859316,-0.06307108266569762,-0.023550535095355065,-0.00032953891064187364,-0.029065981846299584,0.025055325547712406,0.06190733519125326,0.07950916294744252,0.04655621889334739,0.04641496500754206
RAET1E,,,,,,,,,,,,,,,,,,,,,,,,0.08224937643887852,,
IL24,,,,,,,,,,,,,-0.026795366325128144,,,,,,-0.03784132779753969,0.030630829012125327,,,,,-0.01727870979048222,
SORBS1,-0.008202330118792157,-0.05243122951919332,0.044596586218243035,-0.022392234345729012,0.034629878723182135,0.022809936549428762,0.007893303777552298,-0.03360396589332069,-0.011339132052880365,0.05113760764429107,0.052005756654627,0.08897237710538797,0.013454913157645425,0.01898006651631146,0.04295220301778077,0.10090591121655028,-0.042946185428179615,-0.09138628226991181,-0.03270553306049106,0.0027712721393356476,-0.053489099876488075,-0.014117402488232404,-0.02332408402397444,0.012845388918934301,0.06925054751110878,-0.0627645130162192
DLL1,0.07778348709496108,0.07985055358538685,0.01857261433738799,-0.0025978226018037467,0.015044023097303603,0.004984452200337827,0.09382080273677391,-0.018304786499955407,0.08756365725755207,0.048096204873696875,0.064810192298528,-0.02220691425271565,0.07957558610444646,0.017249699074188638,0.06535544274650368,-0.018600309991280078,0.013647794974266828,0.01640003683648091,0.046149472401929806,0.09824157554390281,-0.0039754039598838406,0.007111432902291449,0.059222870861172616,0.11781644975281723,0.09882285923737558,-0.025449239864559076
TLN1,-0.012870596014120475,-0.056828730763693824,0.022306682129949816,-0.010774147916157942,0.04340634526524077,-0.006315894629799327,-0.01017311299190408,-0.03099619132201312,0.10702399265709883,-0.009066001037224984,-0.007767361589715909,-0.001783658096232745,-0.02837801605872695,-0.00390110091855459,0.09563780368981019,0.03114752077644976,-0.0424690929974782,-0.0025530752331834597,-0.019449850320249564,-0.014040565537302336,-0.037919038449695144,0.020657023151376068,0.1399383132252844,0.012386658251283841,0.0017986717483100708,-0.04525227165802063
COL2A1,0.02501825254083804,0.07117426216181325,0.03266378495326369,,,,0.04178168376932776,-0.031796137044075926,0.037350921500510094,,,,,-0.026702085042996614,,,,,0.02222441043794993,-0.0028277546579590462,,0.046043760200491314,,-0.03480630283451422,0.03435245489804318,
SHH,,,,,,-0.022281768907478676,-0.01915941796749186,-0.023919587431269613,0.07132933543602532,-0.00154827980245348,-0.02307908088863479,,,-0.025484274944683825,0.03351878576982788,-0.08703154596897135,,,0.023615703137724108,0.14746339684229937,-0.012006137874537475,0.044006327767512225,,-0.020850159571429668,0.065019424322932,
PON2,0.028261789874325757,0.12232533268472684,0.021772130857197963,0.0467481648471481,0.15881241332752283,-0.013246566135320164,0.0694524155927558,-0.04296029577474159,0.10199770443769839,0.005214006372461205,-0.03736095445692278,0.01216505993109836,0.03184178610648956,0.022128077407228077,0.09475429707605215,0.12721117579053434,0.039859207500651146,0.025612796123673093,0.11581327989652211,0.0529376355952508,0.03899296715001582,-0.0017165688077146778,-0.03059113592255428,0.0023904547070185546,0.06091080943062303,-0.012847181183574901
ICAM5,,0.10687988467747757,-0.024093171675302377,0.03397883489529904,-0.03524047894044993,-0.0272179786960264,0.03069865872083389,-0.05374832391962288,-0.06382370001146226,-0.05544047544054925,-0.030904350207163412,0.025854029058011756,0.03694619195843051,-0.04976941238356702,,,,,-0.0196936133306284,0.03893273543529214,,0.05160662692676308,-0.0706624635330455,0.06305757409823119,0.03300032784586684,-0.07718364469064687
HPX,0.010086285759861266,0.15637197922087331,0.03340864569276784,,0.029841865671880356,-0.033226821494979554,0.02386304177164389,-0.016578827370902598,0.03358897246415523,-0.012784781862637555,-0.0054016608979211055,,-0.01145682542805356,-0.007165695871757553,0.036734749030289976,0.11306628269625636,-0.037120251600204865,-0.016690658549923385,-0.019462281907239594,0.06892086743330686,0.026926126731239407,0.06775720804663607,,-0.02469150399370377,0.06168306988339656,
SFRP2,,0.01825494030978503,-0.0416861312708129,,,-0.002646137875904297,,-0.02295672680861592,-0.033015113565068026,0.05552306729480978,0.031928740717266556,0.03354592208761991,-0.02644465971362402,0.1258292787917411,0.006724295013480499,-0.05683717603928019,,0.02997511502510321,0.07993397841597476,0.06827095067219136,-0.017613940453258817,-0.026770583641756118,0.1662339211900978,0.08415326635144199,0.008491679951053157,-0.01453739276775278
CFC1,,,,,,,,-0.01921633960260357,,0.048533241038228696,,0.00797355126568625,,,,,,,,,,,,,0.029349433721912507,
CD70,,,-0.006525180099559567,,,-0.059525882879852866,,,,0.0109167295340128,,,0.021505458150074687,,,,0.04577437730811422,,0.06368061457666833,0.04847655155760558,,0.006200015021407682,,-0.03842728551447967,-0.0020417980975769075,
HP,0.0638675399060974,0.09693476202318814,0.013986133035536771,,0.025904459006331933,0.01530569838500757,-0.015202025800540189,,0.10504340504072252,0.004385319833712973,0.054950395338475795,-0.006473454044988548,,-0.004339186997513706,-0.08207073823093992,0.020618830344808776,-0.07054963340535245,-0.014314322389392972,0.08931902383701101,0.061901056483918686,-0.04584697249301876,-0.0027738590857551435,,0.014926807550176798,0.10592501777601677,
CXCL2,-0.01463376564972243,0.015023146314809895,0.01985145157159525,-0.03932561106850354,-0.01650004492310179,-0.04105559397004572,-0.013412533663953013,0.046107849122714734,0.009345118945420429,0.012666688492945511,0.025032747046111907,0.003289920137676537,0.041170898342209696,-0.05043950512062516,0.001088781384262897,0.10618421317154195,0.10437824401548534,,0.037816762699649384,0.02400733514814039,0.005446721776535236,-0.05431616275177261,0.09164355708939981,0.06701700466930256,-0.03841770496339696,-0.025680859817899325
NPPB,,,-0.011405990040196502,,0.0020732890763076215,-0.05415699283893038,,,,-0.026238475028600706,,,,-0.032794838818586025,,,,,0.023840624170395164,-0.0158901284774217,,-0.028517288660005954,,-0.05299478634966286,,
CCK,0.015660316188069165,0.04329743721250889,0.06349483213339085,-0.013439601252382775,0.007730434759725369,-0.05947225717221764,0.0817310711525523,0.0027730609567189067,-0.12700059467575162,-0.01665807579397705,-0.0013619466140465718,0.03143368190231819,,-0.05132276678994049,-0.052982519398140054,,,0.04649962936538181,0.02708336783116514,0.06084917208218007,0.018552559900223427,0.041738101226089695,-0.0027730996898895225,0.000738385584179743,-0.0037577597146541916,-0.061033104997601735
SEMA6A,0.004070555422929247,0.10436963855401403,0.025071792317352935,-0.029435387497812673,0.14861034920045288,0.03351728135318188,0.03088718858083621,0.043595584447849806,0.04724414934108169,-0.00409147215667094,0.00970163894944409,0.019140420712135717,0.012097902317570146,0.04204781286717136,-0.0172420704488947,-0.020791685915661644,-0.06885123818080251,-0.04565870368118771,0.030402630992096794,-0.006376761129229189,0.06329290898735639,0.018696734686295676,0.05304821186864136,0.07176790690891628,0.09667249230240484,-0.019631497005020423
IRAK4,-0.04524281889400976,-0.035497852159792266,0.010378171471634601,0.025850321458161168,0.05508905623833253,0.0662310741627459,-0.007227520198354857,-0.012136823576432641,0.05987057646046566,-0.016767102866895763,-0.0013029532633692525,0.007004947581839517,0.05660894880443129,-0.003325750301065662,-0.018522339109253702,0.0028047002647037266,0.0670324951668875,0.024587596355081936,0.05769360203549948,0.077444818569819,-0.07314770693542777,0.03326721607541717,-0.09803361358976596,0.09371311756007386,0.1083975474137437,0.09189067041319537
GSTP1,-0.01895660723697229,0.0858889733265329,0.09053072771438854,-0.03668055811316842,0.0016576383919400105,0.008380401931490648,-0.04134831515877376,0.03144874121264059,0.16177205562333752,0.013625285779024759,-0.002066299799458403,-0.023336911096710166,-0.0679509764695128,-0.0010842333399150377,-0.08470438974871869,0.01983441529691781,0.018708594199931067,-0.07731635244166231,0.04307982752188138,0.10972348527948293,-0.04908913932629515,-0.045310159514366635,-0.012111012973662133,0.02239354973569604,0.03797661965272852,-0.037185449223617315
VCAM1,-0.016241984544637,-0.001921344093819497,0.010313446681790423,-0.010450210172919427,0.10331606487941962,0.01672663375149625,0.019606252909765524,-0.012386268398728938,0.11304192424660106,0.014641128792304454,0.0038286108930302184,0.0535429192722683,0.0012406984972799986,0.035320144069054094,0.07989222760379448,-0.0020579689131376465,-0.07262688134350757,-0.05222108331701355,0.063965044608925,0.0069622279322845175,0.06313392714409073,-0.02840199325429037,0.1401749493877294,0.0892645200856943,0.02958217069567206,-0.05135860432533499
NXPH3,0.052631836234694654,0.04162093017315206,-0.02533498779522403,-0.03558951011810194,0.018898868915864647,0.0072677198227549325,0.02188762942447595,0.03333052362566025,0.07466322200980016,0.029803188111654742,0.000819840191500232,-0.029394369757809936,0.00015980749307530567,0.03196697395079885,0.09807788316518772,-0.026981913605807633,0.03343007601707896,-0.046913812471645264,0.06667113558497924,0.11499767162310705,-0.02394684114706751,-0.010865297466162853,0.01729229707509251,0.04790736458195996,0.05911299553761995,-0.027418103579921964
MTMR4,0.016076825295953875,0.04405413948300268,0.03563645826953808,-0.06262461806994957,0.030927657619556414,0.000383279985395105,-0.02580739693894443,0.025166946177292846,0.06401345046842866,0.020001310426069868,0.003615444054506835,0.016344002474676326,0.07991539522350596,0.10365185447791112,0.07686674246599096,-0.07264068600987686,0.03424656251532938,0.016935043285218703,0.1378958442394073,0.08089276683121731,0.008016651748515595,-0.025033424236840417,0.030514941665919417,0.04943298134546042,0.14233015739889235,0.047552836370041054
LAMC2,,-0.003690659337123546,0.001988008223700521,,,-0.019478087371817984,,-0.04021306553037414,,0.03455220615628721,,,-0.028950699700700716,,,,-0.008758873094091225,,0.030443880541835392,-0.005108605485277045,-0.011178154603904946,-0.016467709795867983,,-0.013657498348708382,0.01185069138742686,
IL10,0.001027662073685696,0.07424024757903404,0.0228378248955234,-0.026272918660273873,0.024223845097463535,0.006614605842334752,-0.007815277953305597,,0.04193447448563485,-0.05513296547195529,,0.0004631525813780045,0.015843565329343234,-0.029356043206346636,0.0608229541350159,0.040884155565710824,-0.06512714847341418,-0.039144290698818925,0.044943838042977816,0.031917258839869525,0.003753821752435986,-0.04104562610175434,,0.07938981697469134,-0.040000801406906754,
SEMA4D,-0.013073750841104327,-0.003763934697157814,0.0647202355043081,-0.010143140181095512,0.08012399100744345,-0.014258801944494259,0.03641908331396452,0.00837527213164228,-0.07992748622043126,0.010441787419212901,-0.044139310888185436,-0.006694630412657972,0.027103488628227465,-0.021451464398340038,0.020094901356419878,0.03389423996350312,0.004935774900653298,0.014474492765545433,0.04437733860783451,0.12781163223733008,0.013456762734836833,-0.004335374491090609,0.06515472765210717,0.10957329708370682,0.049376982724146735,-0.002032693178487071
TRH,-0.0347240485523625,-0.08774297115280286,0.0026649169146192274,,-0.02546261713811334,0.014033191125933412,-0.01397753950656228,0.033296161591459955,0.08419403330542367,-0.009608528942207808,,0.0807523350290325,,0.010099064391956385,-0.018165339927165028,-0.04380745834368509,,,0.06524525163628751,0.062389560906386365,-0.011652571496801774,0.07394085173613335,0.004196324352672881,-0.009171426672799477,0.10498311795371207,
SEMA6D,0.02909090345091913,0.1250377629901751,-0.08168060128878106,0.013878810530084813,0.07576622377756159,-0.006902078555070245,0.03696274619381286,0.01385308958200236,0.08589603683657045,-0.00687221438782623,-0.0469495017093384,-0.01635933506210875,0.010290480105549572,0.01985975571481047,-0.008451725771388656,0.024916228499907916,0.049776521170038085,0.06830073254028043,0.027874619612236914,0.08726902302660208,0.05917569024726399,-0.024533793428894845,0.11158293632349894,0.0410921640443396,0.09245581791686158,-0.03572962094894999
CEL,,,,,0.04582393827595186,,0.02306809177977193,,,,,,,,,-0.051869725232236416,-0.051482907932454476,0.022146107703550643,-0.0383926717071883,-0.05148829173453402,-0.01104382214631743,0.041530021797846144,,0.04792315603987402,0.08880990834940719,
PDCD1LG2,0.031531922184489344,-0.01627858520186662,0.01660190841675225,0.037263032705654155,-0.03440408644465544,-0.017381018682448412,0.03304196458149496,-0.015304663026298772,-0.0015646453386257693,-0.02118087440407654,0.028827112411553713,0.00717032093601979,0.004835561257160846,0.026713473924041647,0.10126411062691616,0.03674359372318969,-0.11764376408691904,-0.01909810408437358,0.004217295407791158,0.04001437112265154,0.051670606203112784,0.1078448523246553,,0.08562189512861496,-0.014141835296140269,
SPINT1,-0.042049254359669684,-0.06961592581643698,-0.01806849249356372,-0.012050933979787048,0.06448685426683579,0.010833981457057135,-0.005773683921870854,-0.036526274930705066,0.05009022821539316,0.023329100926014198,-0.015791739873264994,-0.005214848110194973,0.04302883218772558,0.07103294502075296,0.031331638607982625,0.04267666923598282,0.02959873407415367,0.013791378187969685,0.021204839536558707,0.04745739536649301,0.024383550992440217,0.018495606298487066,,0.030250706860718072,-0.043442308934727634,
CTHRC1,-0.00363139156853217,-0.05735037118016274,0.05015320312199249,-0.027516404434222506,-0.029916690224988263,0.011796802928102616,0.0010820934399950917,0.021945260730922185,0.11279319644351823,0.005094113270729195,-0.030177306333046373,0.04165398102240554,0.010747239569375917,0.03125408189391005,0.12190093975655768,0.07690636852169984,0.057689210461483835,0.11762171998289733,0.058812360866473755,0.05406842626360826,-0.008133770902008456,0.011261682222910033,,0.08408649440275562,0.060959081574438606,0.054948225607304904
PODXL,0.020055726254541422,0.07039178851691617,0.038196134448661045,0.023498348521888313,0.02855069569757937,0.022364832311813784,-0.014871795813349752,0.01396405239756778,0.13551059017282077,-0.001730512711326348,0.01675171122110415,0.10445929159704649,0.0002580551749461726,0.03071300499829132,0.12351281058717693,0.03749852798834871,0.017686173692605188,0.030479892352094518,0.06680093500631569,0.014066302652391258,-0.021941345549118932,-0.007367482387408575,0.059235400060664745,0.1273271722030006,0.14738837939516788,0.08481723940003118
JAM3,-0.03482327937347148,-0.0010594367427388875,0.030701807832968924,0.012985583016450489,0.10113687668342006,0.02508312623106626,0.040246256889575414,-0.01615333220022118,0.12610443160787568,-0.044055596803210466,-0.033742633619002566,0.04364985297210274,-0.012858268415521115,0.05557184695687875,0.0004462201747754681,0.06944435026984963,0.04237898603131771,-0.0010904194034800422,0.012991643608083548,0.002091805409824822,0.046039232077332744,-0.06801258385953009,-0.01656451839170759,-0.03543003519119259,0.09753828918041761,0.098985527126839
TGFB2,-0.006501729304062322,-0.09716622962333478,0.08269204401039032,-0.034860515604733605,-0.0405354927065322,0.07669577040991674,0.05989552409133392,0.03687437634933197,0.12001447768174246,-0.011245107621638727,-0.008563994349417917,0.024443451373485303,-0.02675900757616366,0.06456042072072544,0.07897080657059462,0.14022474188982395,-0.017758256523516744,0.026001501664366943,-0.006770302003757377,0.0709698855593707,-0.04192130688852288,-0.0002367444230673524,0.023466028866713184,0.0042068033745755185,0.10362699569910427,-0.027858352498806083
COL18A1,-0.013612865676116607,-0.03277408286499087,0.00909854798726726,-0.027891739849495424,0.13414505763093593,-0.03781283578336237,0.11763176127966199,0.028690583053178984,0.12971075879927937,-0.056615240139497,0.08264358425160011,0.012684567730003085,-0.00753089458823852,0.08929908788036638,0.17731171970992135,0.027307029039746352,0.029151674576072793,0.06786012928041545,0.03853515131920891,-0.013805402846299586,-0.016036864573753886,0.015751349998898552,0.011927487171476554,0.06198065235700457,0.08041557904971533,0.08270231621528734
NODAL,0.04739654259124497,,-0.006290283971787496,-0.017667278115815616,,0.027523660038284905,0.005308535491425808,0.09079436648350178,0.12673893039779574,,,,,-0.014112693368749095,0.12257631679223757,0.09859964535614696,0.01918587614404093,-0.019493962070693947,0.015071457366360183,0.013008638451478488,-0.03854533811742314,-0.048469160941548045,,-0.0485189221260285,0.028325732385947835,
INHBB,0.058460442121542035,-0.10156750675001942,-0.005610053712846904,0.009765936217073064,0.04588549717177135,-0.040774809954410775,-0.007412109419036231,-0.018373707864638725,0.057911605404846335,0.05519373494724603,0.027942350734267922,0.003908465520761077,0.007921092791895876,0.03739837477163768,0.14817561360469828,-0.06536735181631557,0.02474580678636814,0.014196960190075256,0.021040980662417014,-0.00530327083389905,-0.054338091394622715,-0.002798801966256368,0.08337711792355149,0.056611724662192026,0.10618472258813978,0.058637397730877096
LCN1,,,0.0004749778205345589,,,,,,0.006796028887400187,,,,,,-0.030896225618018584,,,,-0.01348617926614222,-0.005741933679506476,,,,0.05855317195097712,0.05629558112950265,
ARF4,0.015137337384549646,-0.0325698489091245,0.04259392015733075,-0.03274392002971095,-0.05779572129102342,-0.06442102674223496,-0.0312591137960192,0.011006150138995478,0.06379614887580395,0.031514280100908926,-0.0184626416925755,-0.06030179688654931,-0.04202445652095342,0.033022090989878516,0.16572386827439056,0.03773604664339047,-0.0072068678823364605,-0.005918559619084645,0.08566136370079692,0.10639965408175775,-0.008622591277989063,-0.055006716807664106,0.004437802168882677,-0.03640070287192735,0.0018060897520420305,0.0015231152166458714
CXCL14,0.037037975309097304,0.004729416347164966,-0.045219476144135455,0.0039013945894477192,-0.05392823864930397,0.01574011456543703,0.03609807117962371,0.015613292085404865,-0.04751031448175855,-0.04074194594252826,0.03823308174529228,0.0038657188528119285,0.03872725167878172,0.02512060255903237,0.06056055068783534,-0.05408478524719501,-0.01703365275001778,0.011401094105487794,-0.029596699521212414,-0.023051983391856178,-0.004038125173732365,0.009291711692260647,-0.006893541525573393,0.03392537117115449,0.08488438259340682,-0.12118161100821517
LIF,0.010373711787193202,-0.03656725060176251,0.04286924741005057,0.04900239887976422,-0.06306950676840416,-0.011934104207530582,-0.09414546263404759,-0.03562659363363132,0.03690334290094038,-0.02616082712494577,-0.011244907370155828,0.007856611655256394,0.03560674453079894,0.02307969875688806,0.06643777265836337,-0.001798860211019031,-0.11015680955827258,-0.019989276412683745,0.011270694014986742,-0.037734768857050564,-0.00409364241801647,-0.019203246945174026,0.004911413127285559,-0.036769137597298565,0.0400995772804393,
IL17B,,-0.011003312565852233,,,-0.02546261713811334,,,,0.09931368942046416,,,,0.03374213249975393,,0.0033532214088239773,-0.13903702882917887,0.06385292486731566,,-0.008528661548541393,0.03341922368666874,,0.01732052615337342,,0.046177479913523486,-0.010168606696998247,
MMP1,,,0.028466946515160674,,-0.06390470495914825,,0.011317857442204128,,,,,,-0.039483816121955534,,0.19205466751083358,0.10217744122100378,,,0.01581719081657829,0.02868926719881145,,-0.005140772478213203,,0.10233315292062858,-0.029615528497409272,
MATN1,,0.013428026348310267,0.017843367895369812,,-0.04067646060809498,,,0.019555574766485274,0.07993921489891759,-0.008285890397889621,,,-0.011394786594739394,0.08978763110240592,,,-0.010320600812279493,,-0.04413531289286468,0.025714430031184225,-0.036197339477978055,-0.015150147587400421,,0.021845765751314142,0.010399762042582233,
ADAM28,0.033366932836322596,-0.04285842639354741,-0.004406230895298407,-0.002555293114806596,0.022457467814695323,0.04600064607461743,0.005464737108839849,0.021293961055797266,0.013403848086863158,0.018269791217951657,-0.029594249388990815,-0.008303641578170661,-0.00642494775530127,0.005770659856878157,0.023220687794915776,0.05225872082305847,0.08346892493965237,-0.025960196811135556,-0.012467882149896857,0.04474943052921202,0.05861854397276769,-0.027885191005012307,-0.05225480670821964,0.01893920267257127,-0.02981493057087869,0.010016042170835217
TCN2,0.035993764835426496,0.03123472761904573,0.023705799269294968,0.07106216848414658,0.006145080140438445,0.06320106693326608,0.10909806884895376,0.07522609501662175,0.11571881679134204,-0.01108323722888461,-0.03995304050849829,0.056777558450192556,-0.06906950346153896,0.04085680784797861,-0.012825961833590395,0.08003633897505202,-0.007800965790297874,-0.030587755048811074,0.038736173701264316,0.07484232362747884,-0.020470835493374858,0.06465247456318574,-0.08128760327833535,-0.008258240570134679,0.008724300701342882,0.027613742671321023
THPO,,,-0.0019787518603877315,,,0.07174372469967763,,-0.03349224210075156,0.03269704528079695,-0.03043536179251058,0.08340819214308468,-0.0135005454867681,,-0.026702084787385286,,0.12256085494399344,0.07867157862556967,-0.008938874647805184,,,,0.050386880175217454,,0.024550678241841758,0.10314049621432221,
CUBN,0.004584507937587638,-0.03980415995450227,-0.014161191532216748,-0.025539311969104736,0.011816241643879488,-0.03840947354368788,0.012039198558963031,0.044445491608475315,0.08919133490277507,-0.0056777523775431715,0.007834995643645497,0.10664291142367381,0.09121882606058408,0.055689544657277976,0.08895250290061171,0.041945442815922544,0.010612637656391507,-0.008949730924191998,0.0531985855301868,0.05055814374096771,0.0307766511528424,-0.02952180613785264,-0.04177758278794541,0.12460250929965393,0.0312591462604883,
TIMP3,0.020348983785378572,-0.06315244554848418,-0.025458724906732955,-0.029549847099748196,-0.05512687070943959,-0.057859621567346704,0.13126004395566568,0.03387643993196913,0.0922882467973753,0.049372832286349665,-0.025833083374962637,0.05642992339119463,-0.05713342271568679,0.03294079028435338,0.08153878871546164,-0.0017014769346840963,-0.04924243967102973,0.007890575047912279,0.03196267370810143,-0.0033472555716157577,0.008492191691981133,0.015525710231571677,0.03229654984833912,0.057722572824894305,0.06735323914680014,-0.03144288462879512
PIGF,0.015053546473951858,0.06454977588752138,-0.009757744036694875,-0.016022755649253848,0.039068712023120684,-0.03451198748997756,0.04221779808687009,-0.0026312478475270643,0.10525383428288711,0.04348113532047103,-0.017781526943578787,0.05272335790826912,0.008332871449355272,0.03703433785000157,0.10815275827904938,0.0038209901255454493,0.09632727518716189,0.006639171702209611,0.04500413078466142,0.08230542196915856,-0.04176886740711455,0.0662663041949116,0.07664201211367767,0.08905208603669602,-0.003792410010039994,0.032780640039700555
CRH,,,-0.021000199994844364,0.006788773653804932,,-0.004667766919183966,-0.025223233317553686,-0.028983759089323786,-0.05582352105717943,-0.025522891414796668,0.013163187760228425,0.007078995587076307,,0.0006888183192420794,,,,,-0.02716734638396001,0.061856001283589895,-0.014508815402757174,-0.009756855575112742,0.08303435757387506,0.03715215451703817,0.06414780900964755,-0.019209977115488212
BDNF,,0.06591125883205723,0.03527745159560499,-0.019834506059729567,0.015273042946517004,-0.04162363343983862,-0.036088885960606734,0.010832649775813606,-0.11111657265259361,-0.0030525310394838826,0.047713421630025225,0.02054473900721459,-0.004878953528801944,0.06684183290852483,0.013401078641251497,0.0218036787567328,,,0.12016331320733921,0.0721990476684867,0.014195970857570564,-0.015346712140172497,0.027284307485498076,0.003275783650979799,0.07674177514225064,0.005074230590550201
CCL5,0.002405084173622908,-0.06672890056014096,0.030189841881468536,-0.019529477624719977,,0.0572379496147221,-0.018653402273087805,0.027276339073355235,0.13780583665270482,-0.005524956045081858,-0.03051988079538531,0.048388803043391174,-0.013662786592485923,-0.006198243912375127,-0.0309827414807036,0.062131639178462934,-0.038223662591597936,0.002852068453173814,0.06757328524591175,-0.014851864532887081,0.12799451698345868,-0.0348637625616827,-0.019011214510976367,0.07161031185874032,-0.014162408638423185,
GAD1,0.04722341323461926,0.029599917683155372,0.021573428076359962,-0.017721493325865624,0.062028675468788166,-0.05217102634914352,0.04727212808426312,0.03704891549436736,-0.04567990301630545,-0.02335732094306351,0.049935091484504125,0.08020345400292757,-0.04014249731326994,0.02387936825123045,-0.07385612552336056,0.04169025554050307,-0.00907077419472464,-0.05734205632381703,0.06310298563099946,0.15822906748325852,0.06081806084341674,-0.02159238951823326,-0.05856202205842718,0.013439731126921052,0.0208305641337797,0.028607343112324293
COL14A1,-0.020581511069420376,-0.011980291854168946,-0.012219707549380761,-0.015387305614227664,0.06124946082627366,0.016709798349051275,0.03377487616699477,0.06865133420765301,0.09047973955699795,-0.011629118750312476,0.020658607278782555,0.02997280593237861,-0.016418990006365562,0.0060746673352401965,0.16958185393652025,0.06346746981130479,0.15876984256711285,-0.01738525179123132,0.08345084452928307,-0.04190526824981347,-0.0032648405776851104,-0.0022085769204862574,,0.021962215330491582,0.006419059875793226,
HLA-A,0.011020837736185255,0.03375567105051458,0.014713743957990673,0.0052196403745979275,0.009469572836430129,-0.005298602161273324,-0.05963494736058545,0.00016490945624227058,0.1661106592287826,0.027798159674195733,-0.0017713354293392382,0.012627861638778366,-0.029567620360038353,0.10655185740654012,0.035666851732986865,-0.022443297956229073,0.0057070369296606735,0.012067726339516497,-0.01285600062221237,-0.06832128229731557,-0.0020384489778131087,-0.03993161242234436,-0.024339122646507293,0.013155830170626144,0.002363513827245292,0.004365990015707671
CD5L,0.0049738684255191835,,0.013237295819026433,-0.01439726757591525,,,,,,,,-0.04823945205070986,,,,,,-0.03178299890070899,,,,,,,,
FGF18,,,-0.05188105853515931,,-0.025462588703712843,0.006806344908621743,0.00695518754308112,-0.021072778031532804,,0.0332342576682575,,,0.027777616433482945,,,,,,-0.012476611997902799,0.03518481822176745,,0.009515110962826185,,-0.0425714538293039,0.04439405546109784,
ADM,0.012594629057485865,-0.13767713823574612,-0.051301638831532353,-0.012237843485367704,-0.03308119906992852,-0.04166357656152924,-0.1305348046865951,0.029501437807527533,0.08572199150842898,-0.028045002206834486,-0.02529644182163244,0.03571499803422101,0.006569860699989649,0.052946296484895246,0.03527764065266814,-0.06146924062312152,-0.023654111477631082,-0.01026673572716158,-0.014020223673626429,-0.07836966899299797,0.01443083127454061,-0.030956381972136952,0.031439855418767634,-0.012358895185865098,-0.07048870909581471,0.01875892149877253
CCL15,,,0.058284204463500064,,,,,,,,-0.04305603331137055,,,,0.013203662900164717,,,,,,,,,0.014478821316683438,,
GNAI2,0.01437674027251159,0.020635562855907744,0.07616344782481867,-0.019982609735045242,0.04180587814106894,-0.002600725334193613,0.006085631114334183,-0.003510740360948273,0.17388318068874847,0.04149271002859661,-0.014221546696575629,-0.03334076606072389,-0.0589597753550339,-0.009660256055329837,0.03473329331142269,-0.02317765117626608,0.06202291769279211,0.03271381986661022,-0.01226167498070892,-0.04436039472853927,-0.023829330161385175,-0.0030829734520540076,-0.07457473601612159,0.057084500870378835,0.04497896426108612,0.07746854145508904
HDC,,,,,,,,,0.03714594193536939,,-0.0207526073258074,,,,,,0.06440354288255754,,,,,,,0.08302287274546083,0.04688488983379138,
COL11A1,-0.0043826368630694645,,0.03745900944102347,-0.011210718181712495,0.01957538168128103,0.04341115567719832,0.05838342795780531,0.03060331109511175,-0.05283585446490516,0.012199212545867333,0.012843083230412096,0.038342260678223244,-0.04959724174930235,0.10115575994040267,0.07022270030266124,0.024630646101131998,,-0.00032099164904365673,0.05683113359974437,0.10115586208215545,0.018551780855303766,0.05086883570460246,,0.00020982981386168348,0.08759837464536765,-0.015816776993451846
NUCB2,0.06467107546990687,-0.0006407630112279109,-0.008880969820165915,0.04110699167889615,-0.050655016877098516,0.021234779024432417,0.024288931432388444,0.024029433027505,0.07503681772564029,0.04967834242868157,0.01698964481104607,-0.01404628367706407,-0.03149126972239807,0.06825075323161477,0.013830335577129503,0.09152993133039639,-0.04654473585780291,0.019271616285971918,0.015109354882077382,-0.0732729264769487,0.010932158330352899,-0.015464837556947449,-0.02362723413626684,0.006009097374822661,-0.002397492568472363,0.027635798088318172
FGF16,,,,,,,,,,,,,,,,,,,,,,,,,0.010881997983330427,
CXCL1,,-0.05591889180238709,0.0069575167733286125,0.003244403752242411,0.055318040708631125,-0.024796626545427428,-0.029570372561841394,,-0.00030559422579921707,-0.017074648784198492,-0.022565501854554262,-0.03622229684063541,0.03785227385634963,0.0033632651016549334,0.007958810370991469,0.08738330468610496,-0.024103932613192554,,0.046075476010358704,-0.004152807725464546,0.00711891298522548,-0.020078833933390258,0.03886649292478146,-0.03935111913310742,0.0034724874148965115,0.01064536545378843
VCAN,0.0860064399236998,0.050098501484299826,-0.013921517768239324,0.03705749691292442,0.05194004168699291,0.033836985467467696,0.03620997288219192,-0.005854776951234846,0.11760658599565756,-0.013781514560091555,-0.029446093583483088,-0.027237220549897127,0.015426015538965597,0.052149209514278115,-0.05795483910037315,-0.06400196418565633,0.01148588537836476,-0.05350796219740712,0.014008601904463293,0.0192918595818551,-0.012305667703635899,-0.06837770160024999,-0.03857573732287712,-0.0397551487481888,0.12206890618622188,-8.78686657139014e-05
MMP7,,-0.04444692656045484,-0.03280555422114549,,,-0.031818295898008414,,0.06789561713186076,0.03001096247194978,-0.017144240583455612,0.010507026030062665,-0.034759694582037766,0.038452951944221304,-0.03247467280481093,0.03779400355941039,-0.05548963949044287,,,0.07482797266465634,-0.040602878850245556,,-0.05103181812349734,,-0.021198253078704002,0.05932164942031407,
PTPN6,0.0490291296103695,-0.006877423880579452,0.09081649572993516,0.03538546337468077,0.059219731828337153,0.010455477138778,0.05057442469692869,-0.03800503227859413,0.0799353130253868,0.0028120793660086586,0.020978955873039686,-0.0003190202999328929,-0.012178693174427864,-0.006843178089986444,0.05077081126707924,0.08104816207621061,0.09438274339967667,0.02990388927622142,0.024491595830589175,0.050774770326304175,-0.013767002564033412,0.026629461134929634,-0.03184550581115504,0.10114920278660008,0.059698255327801285,-0.03703532566718688
PTGS2,-0.00942131276845078,-0.10256449804455309,0.016265541994966257,-0.005881698015773174,-0.06474743553598977,-0.0018708478304839307,-0.10812888506898576,0.049589038583454155,-0.09768882351928897,-0.002024519021629698,-0.042231785647427834,0.001431342326465728,-0.028190180684464834,0.0033758574038951776,-0.0015099287659830745,-0.08606303935646864,0.07033898406977644,0.08229782541079791,-0.022990364543998425,-0.07235023831470112,-0.06143962092359115,-0.09250158719706257,-0.052018758551559144,-0.0029212095796739643,-0.08180119981454313,-0.02017951367466346
XCL1,-0.008622546147317655,,0.04415773693634571,,,0.01083539679753943,0.04045714273375126,,,0.033145616854997687,,-0.03364933393570308,0.07915917011825419,,,,,,,,,,,,0.008730308809584843,
CD58,-0.04851423132566104,0.007167087760318706,0.07777329023729442,0.004436723563160993,0.05000354576242039,0.01726641881251132,0.05971326717228333,0.023254172844536455,0.09401754327803222,0.0033507254332701304,-0.006622286029407851,0.03399920601834425,-0.022392424609998667,0.013405462568557175,0.11818795637606512,0.08761360670815262,0.049044696623311755,0.024733847927513042,0.06720029845185223,0.0351605623063346,0.038592309898491266,-0.006388528330195941,0.09454212667123547,0.08565534547908268,0.02375535074069426,-0.032450904880205016
TNFSF14,-0.026118933696990785,0.08131643998530924,0.056780358382816656,-0.024807668859342064,0.06983333841961495,0.025116367590099352,-0.07298347996776579,,0.007556962341992261,0.0551224120567667,-0.022040557482431184,-0.015099189603718387,,,-0.013837473765580224,0.0668487633224102,,0.0007078720858672612,0.005063462640969088,-0.04145397135617916,0.02100112738430882,-0.06635562859838182,0.04467476540064014,-0.06559958853473988,0.04308968827817936,-0.016538851299814437
CNTN4,,-0.01959206964514562,0.04976569419700384,-0.0022176382426201593,-0.029272005139558015,0.01523092660187143,0.06667675170774318,0.0026272346914231366,-0.054506442646616624,0.03896268084141506,0.013202824306873877,0.0446266238037612,,-0.01355028394756392,0.0026032975569956016,,,0.03399221213604512,0.039678808306145695,0.00975290969677926,0.027020138913347737,-0.0035550441185417236,-0.035748743514068856,-0.02358973824179971,0.013381719020629155,0.006056426895538558
NTF4,,,,,,-0.03289916864881407,,,,,,,,,,,,,,,,,,,,
INSL3,,,0.03877094446549234,,,-0.015643024042820166,,,,0.030034259806612083,,,,,,,,,-0.014994730327504023,0.013761923356723027,,-0.025868680265993562,,0.0405908548731047,,
BTLA,,,,,,-0.019551768269373902,-0.010896762785785776,,,,-0.02814654574812228,,,,,,,0.017955617448261844,,,,,,0.06600608521897086,,
MFNG,0.02613140664118588,-0.017006963502011627,0.06497144699116399,-0.059520045661339886,0.02094556862290211,-0.03200183977232196,0.0721513309267618,0.05453854751795598,0.14582108399118657,-0.013195111470682183,0.002343760742605976,0.024735120801587893,0.00217027460140707,0.09349578837081342,0.03122196659015512,-0.043891346853249545,-0.04072362721912622,-0.00018185417471294556,0.052647311683650284,0.045207774609070606,-0.031328483047508376,-0.00971668867543927,0.07425143669376089,0.09623523394399437,0.046646269729796054,-0.10715840841580761
ICAM1,-0.033962551857028976,-0.0016002639561096914,-0.0009491188495891192,-0.012716168026339817,-0.02246613472435905,-0.025990156865075432,-0.08211295267143918,-0.04729475845908614,0.06822690440728828,0.044195920719888517,0.02806887216014795,0.07978931480596672,-0.0031730054129730976,0.05445470878434206,0.02827771103430083,0.016972299610374074,-0.038060521374516446,0.005148896542165418,0.07727478077251031,-0.018669910966493012,0.06177659740006333,-0.02021839713226313,0.06788869997432802,0.0500614894516196,0.00414681143359618,0.04809974573401256
PROS1,-0.0015322856405479881,-0.08105623361344093,0.00944608133917186,-0.028679870376696174,0.010480971982104481,0.02242576825902197,-0.0954525550842392,0.015956684218445264,0.12194373009521392,-0.03424234441334089,-0.024662366967848168,0.038686706073787,0.021163779725235168,-0.011847651160699378,-0.016247321216450807,0.10547870514103762,-0.03360703989982312,0.002440391355481224,-0.004394063105916619,0.0010628081354784324,-0.027333940139023134,-0.004726060716991996,0.01479329772768876,-0.04218289984265117,0.08798013072765143,-0.10627564342852329
CLCF1,0.005565843939991803,-0.019453243613690663,0.09489000138291925,0.00262153331367758,-0.0189477720027493,0.034356860153368654,-0.04243277145321893,-0.010353516998307867,0.015027889593883511,0.0067361427046675445,-0.0041487678301362334,0.008950404097691518,0.024034593061111963,0.00041265199837283985,0.005224959175300786,0.020915310820303512,0.0018273999646681697,0.003442107537283684,0.12633183489118266,0.050834012916194354,-0.011572992653198113,0.005841647763335957,0.013162675418624559,0.022158128080988704,0.0056790782225432076,
PSAP,-0.09555563992808772,-0.03535602004962617,-0.018876243625775883,-0.009553169023880112,0.006099227039951104,0.053742311694813506,0.009257154079412033,0.006014253350679964,-0.08667224105867524,0.014481141407855525,0.020965857264906733,0.018213542722467425,0.05991505361366356,0.05750152670994499,0.051855969380911957,0.056789835881671066,-0.023543653246318512,0.08202010573638714,0.0366930188388042,0.02991298945005972,0.002036653956300703,-0.06072248105348628,-0.11475368991917934,0.032872726707854086,0.01758791420822469,-0.027756642656419517
EFEMP1,-0.06788901215392004,-0.1249900275525274,0.011478697802878508,0.03150965155093935,0.059846288617368834,0.0005856686194370837,-0.0685096315333114,-0.024802099899858588,0.09473082512420293,0.007990158244100681,-0.018877524055607615,0.006433735580058067,-0.0035274368603646768,0.053687620251468,0.08021228107686244,0.03175113323610132,-0.13283655078018233,0.022244589979717823,-0.00026973653701591787,0.0863813976432971,0.00719056661600087,-0.05453179869236602,0.05699656960790039,-0.030717155654935182,0.06609773447603907,0.02190635121351968
C1QTNF1,-0.0041304941852228026,-0.0032591944435162424,0.005718775705282031,0.03276503321158977,-0.008126574388750975,-0.005702912525031269,0.015680453200115605,0.03079302375863408,0.1000984337438852,0.0279186892024224,0.011657129723627035,0.04808207961562012,0.028456896648176053,-0.017979010431669246,-0.00236178582149419,0.028118739315781273,0.04865908288980665,0.03986567762535406,0.06463105278172063,0.0006473151492787776,-0.0029910890617207476,-0.011540623649025757,0.08315279757773894,0.017668833792587556,0.04800628438854033,-0.02023336449946915
ALB,0.00925014169292271,0.025502872542907784,0.10240224935630167,-0.032724876571280696,,-0.024070390764939657,-0.016146572508913132,0.012576996528311223,0.025598111652629346,0.039355404314014596,0.019504728961513233,-0.046130832170722044,-0.025365114878285716,0.06899868712189353,-0.07023903915706703,-0.020662132325655024,-0.016872657073749027,-0.07322130800641254,0.05770309521593322,0.018614259078829704,-0.0038444111905571077,0.007894827263482238,0.1123986036020626,0.027405690931365106,-0.046222576214646344,-0.0670245458959038
CCL13,,,,,,,,,,,,,-0.00796138128255101,,,,,,0.05322897409333993,,,-0.04573593484413728,,,,
EFNA3,-0.011540379614553654,-0.054723347376923956,0.0009818793450090692,-0.007655592765063704,0.03760377398105503,0.004966001865375235,0.03572194595620207,0.06103146927618631,-0.10505469226192982,-0.014970219182431488,-0.00946629029416966,-0.011502420161426012,0.0487608507352714,0.016075579595257312,0.048595658781552455,-0.06623756941499027,-0.05768431391582715,0.047142511941714725,0.07284233220332463,0.12468496495909279,0.021140717173520215,0.0006817551202567533,0.1429676614248956,0.07704442022653915,0.0933711186936204,0.02140469743255092
DRAXIN,-0.025672615245424635,0.12006225010456999,0.021543412140680535,0.06866938264240104,-0.020269201876230998,-0.014261343805044941,0.05509232893636797,-0.011289053863165525,0.0854788735990106,-0.03366124162517772,0.0648704726312243,0.07763467181319786,0.016402749339105082,0.04833889885861226,0.04233666582360277,0.022025499196895396,-0.044209587658773544,-0.06638510196191726,0.03583852511646627,-0.04432799905025212,0.07584026691985823,-0.02944739552717845,-0.04561194318742615,0.10057782973673095,0.11727124975453894,-0.03888015831339526
RAET1L,,,-0.027332816167844456,,,,,,,,-0.0006498193078046351,,,,,,,,,0.013914382325932324,,-0.033229403446983635,,,,
NPTX2,0.059329413138466645,0.1131532882499371,0.08042421983286392,0.015567066828397721,0.048612164571150154,0.05786577989757819,0.061928105033569686,0.014020402859826777,-0.17592976256523746,-0.005981851155759014,0.007612785853158598,-0.04333295228535036,-0.016704523514998987,0.0033143615595402813,-0.09981415463882985,-0.007378227940820243,,-0.06830237689767685,0.06543375131538605,0.10948181067517154,0.06854804797338686,0.0027647672520869815,-0.030761082063467258,0.04781688981980447,0.05807607516052607,-0.039464876400493225
FGF11,0.07609799030972385,-0.04598761566003501,0.0035520894007466555,-0.004268522587363254,-0.02347782091672174,-0.03839496739707457,0.02597099366270967,-0.015403882403788484,0.10077120212076719,0.05315676194789873,0.0277578389685514,0.0034394474903075164,-0.017248891922060205,0.03853125854023556,0.04395439821701605,-0.14412211288926713,-0.0010046117343382216,-0.010703829318245615,-0.0169917029636425,0.0032699179822162274,0.003941588683399937,-0.06910673831512976,-0.0030588974300867562,-0.03680362982102611,0.10269154772746833,-0.055135996390628966
CD59,-0.015841420842876448,0.05792072436565092,0.03023093666768721,0.0032611271700406464,0.051156278106239725,-0.01135044256798289,-0.019941928632225648,-0.017335550017479353,-0.04418181642015894,-0.020776428255634576,0.005974698832190053,0.005135808643319781,-0.014889594070976824,0.022354095670289044,0.12112000931775878,0.11860125183704665,0.0569501232884688,0.0005324910103724343,0.06380943499934742,-0.005399399460743177,0.062204400110917685,-0.019175860913179188,0.006837463712041041,0.04761502413587187,0.09301314701470553,-0.06526235187722945
COL9A2,0.07137522163140553,0.09749249784037199,-0.010060575998092777,0.01972510232783946,0.07972295682176767,0.0037002311588686465,0.0929929842939785,0.006997322829277557,0.035583894158486014,0.007166491376017825,0.0511112000078812,-0.027666375578123938,-0.012313539522877412,0.0009615595232687277,0.002736483612698629,0.20114484666301785,-0.028750964759182606,0.020819992946027013,0.07020308268896358,0.1510569191965407,0.02767565700587284,-0.022686840667466315,0.05177619535269394,0.07570538280487198,0.14851254103689646,-0.0014259623076812618
DLL3,0.010444442769407609,0.10293319977597806,0.022779745461765095,0.011221010463993812,0.07320491983640363,0.06046521627840554,0.013771225508012602,0.004553785471559809,0.08369684364643816,0.0008203353901872175,0.08556522630332751,0.025425649233022655,-0.03250335627533519,0.023582537332291716,-0.0853952660824587,0.03727987255770994,0.10120642033495779,0.000291020694676733,0.0781259541928599,0.12967199712550476,0.019494715993400864,-0.004235439796226146,0.004368111994521021,0.09929546158914153,0.08290489318474882,-0.04564271724434775
FGF5,,,,,,,,,-0.03539260638858404,,,-0.03343022104323826,0.005422861596519904,,,,,,,,,,,0.014742902188946598,0.06225159674691811,
LIN7C,0.03880411354248863,-0.01062508217040962,-0.011400783426504982,-0.044548499901846506,0.04808973931025442,-0.012335177719386746,-0.0007921364709036885,-0.0035125934816729195,0.0611351218204882,0.028299783527927915,-0.022633421661483164,0.0798582116543804,-0.029117270570008066,0.018247367293126225,0.06062451006339131,0.10407860469349492,-0.04102859134670911,-0.04204564939232138,-0.002860509536105043,-0.0008840930697553403,-0.035359837200755063,-0.015956353065161598,0.01831640201981452,0.055669684174530894,-0.01945796521204406,-0.0022772188027025387
GDF7,-0.052678313729177306,-0.042343752186861275,-0.03707381505815158,-0.020838359480652303,,0.021919541385514066,,-0.024158617246356144,0.08614858303445935,0.0698786768941082,-0.022040556625935084,0.08776625468386662,,,,,,0.07304050276428724,,-0.054606319442003094,0.03396734242327074,0.009604927874393309,,0.04405134787346848,0.04301318454181416,
PSPN,-0.053108160859406686,0.008127116155762793,0.04582145111251322,-0.0185623023629691,0.010026323792091141,0.012702422157471948,0.09698700952421364,-0.040526243196133196,0.005352774475786087,-0.01656701138683651,0.02928486434757866,-0.06838733981419581,0.047377047214156816,0.020929723160922984,0.028424330421770047,0.014762872427462123,0.06689754207786475,-0.018406284339785084,-0.04075753691439606,0.06026678269592845,-0.010571301770198022,0.03684302044878375,-0.06091403511036418,0.12468126545282765,0.025933459349470188,-0.06785126040948299
ANGPT1,0.05363345737131792,-0.011732766702453322,0.008647401256185454,-0.004722783800036153,-0.029916688462074174,0.026515674604912633,0.12079508371945971,-0.005017036025280288,0.1069641581507522,0.0006131301727846166,-0.04006669248703658,-0.009881849261443846,-0.009898912636264046,0.06643309869491376,0.07671588856546264,-0.03259514033727714,0.03385051557401236,-0.04445437762776819,0.05787624199823227,-0.00703601974506376,0.00038365519168684624,-0.030257607988076276,0.031688859167601495,0.07564089786023072,-0.008110925761715954,0.035713518354332584
PNOC,-0.03100658140564822,0.0983532188824781,0.05795995215932411,0.040228749697435846,-0.019094401232193466,-0.05206915534730987,0.05747429790507621,0.051801153093776676,-0.13105877340255082,-0.0033393270268696194,0.035010324698936016,0.05943477655449129,-0.01025994663155842,0.03841720331604262,,,,,,0.044502871936261255,,-0.005282064399750688,-0.021773965956642067,0.02238458942521201,0.0356443027818042,-0.03484245143270333
L1CAM,0.06723650760464431,0.06958732418114932,0.019907458570118282,-0.03970238182803911,0.11581349838783318,0.017026152487217627,0.05925545302588671,0.04954871648837225,-0.09924248343617073,0.02678701398617387,0.016847318986437133,-0.005171810490235799,0.0679401721861622,-0.005107712765316572,0.03694879345358782,0.03444563506071083,0.06572628618542666,-0.07512970361361318,0.0021519227660171114,0.0026166330277860293,0.00572485852396998,0.007202677082198708,0.07715718232413324,0.009879100343176302,0.08195407161283522,-0.10105079519261015
APOA1,0.06792310174203746,-0.0036051660886263306,-0.03458815523629253,-0.028858330385713102,-0.03068323458100479,-0.046215113469119974,0.020818511892705012,0.03394935841400121,0.04869165778902733,0.014334451846960245,-0.002512310217795991,-0.03583302820502934,-0.028038728346294724,0.033665046794003624,-0.024024517270765374,0.007794249103098479,0.051967125429052775,0.027142073614190774,0.06574334738808969,0.05443984803025484,0.028167274864904873,-0.03026546415159574,,0.11631783560144598,0.05597361093823225,0.06095206177947201
PSEN1,-0.050371309558252766,0.11986008809981444,0.0347901705017638,0.017657460232934873,0.01649564309510142,0.00422902516763896,0.061659458973900065,0.03007828027749179,0.0579628117668148,0.027111687502348693,-0.05543178626132039,0.04633361997557247,0.04134181632256038,0.025051231934839664,0.07593114896542126,0.12390548080932584,0.07131551652429864,0.014378221530763381,-0.004756700306199147,0.08159152440691138,-0.021490296255899294,0.029246243162868918,-0.007491254138671272,0.05350362577996779,0.15078681897477644,0.03925263660689472
CALM2,-0.01685312573911717,0.1086404562102875,0.01716038807495277,-0.008423111966178695,0.04205194865739795,0.009619500302075626,0.07556013626222434,0.035175814391889965,-0.1655337116557174,0.03135462475767076,0.07049088569966312,0.024531574955940702,-0.047177470030072555,-0.02519622327277666,-0.018795672406207525,0.025579701504102215,-0.07854964966346377,0.045354536335773174,0.06829451018206328,0.10478492049573572,0.015075559977409461,0.005382214376729835,0.0648203401995336,0.044315876413220295,0.021873714480978686,-0.003823813210571057
CLEC2B,0.010894424448775466,-0.06939546649137701,0.027283711630830734,-0.03449531688032285,-0.027742930353633476,-0.04657579501483998,-0.08411655910606666,-0.030912476109681074,0.12260199672827324,-0.024395556060408913,0.010240319734080166,0.013100777657883355,0.031590221474274496,0.05674472640289718,0.06766693691631571,0.04654342636828146,-0.06425279225934218,0.005494320825441872,0.008077279555364403,0.0410102932397792,0.0627170444979457,-0.055911591359468174,0.0345372728283351,0.059408362785063173,-0.032395197940512564,0.012257020343601627
NTNG1,0.01250611814434041,0.0342294170093922,0.0970615738780066,-0.035231025786848225,,-0.04561141240703469,-0.010678335335233123,0.07176223043273625,-0.059126388836259175,-0.03550476339230234,0.0056306749191810555,0.036322159180114104,-0.03134156279063872,0.02716903063416169,0.06949061886920797,0.027937808187376588,-0.04854847344868345,0.0878416358275487,0.021988893142420966,0.14130545299442743,-0.01926265849330011,-0.03748033203356705,0.059593378869860866,0.03761849270680971,0.07222968431812227,-0.051057636868785256
LRIG1,0.08410000714756671,0.07908684532759742,-0.02640142863852968,-0.028440752035504155,0.062156313117156914,0.026039823731841195,0.11861425909947758,-0.04654028977933487,0.021055200046018546,0.005246108073069029,0.005259811126077273,-0.011296980077544096,-0.0202960763349918,-0.01917991634361027,0.0023140284656336775,0.0811760089141482,0.04401545769021888,0.030865441745134257,0.039795037211056275,0.1299207373577874,0.031733466803277516,0.07816888094006758,-0.05106748620549559,0.0032831284057043752,0.08876852316791638,-0.07407180144019769
CPAMD8,0.008661217265544665,,0.0023024550634316125,,,0.027367103500409776,0.010024719210842636,0.04710757751470063,-0.018546898896479994,-0.0067885422909178,0.018519595199971813,-0.058497132104557426,,0.06877820958745545,-0.0444547088862648,,-0.01218334934366827,0.06752075965104766,,-0.0009779865494933676,0.056063812667622254,,0.12638480535685617,0.07557202180904886,0.010767423881220067,-0.02267011436633158
GHRL,-0.03445293134221597,,0.04357613988547375,-0.026431208525498955,,-0.030940902333890796,0.036112381046270334,-0.03622863063116247,-0.009312430968050926,0.037875474630348335,-0.02010060635708583,-0.007942341603518806,,0.017408601497622588,-0.012346316628033236,0.061494960341751136,0.03223394546676622,-0.034271664639627664,,,0.03726852114529775,-0.02642551477660607,,0.018461328007686115,-0.0404032508868404,
NPY,0.0347048084281589,0.128751491554818,0.04886364444930998,0.01058460171129016,-0.023544114355919295,0.02707240341663167,-0.04902064715295009,0.07642300569215901,-0.04800532474142135,0.007907960396781655,0.07183345985171592,-0.013399079060824272,,0.053117859382481376,0.03173167885982329,-0.028199897745576595,,0.050621552363324634,0.04294207157146152,-0.008156809567924481,0.012971577327411183,0.008879240893819244,-0.09809993324409944,0.004672575889551984,0.04815066354377076,0.011977251881283315
MMP2,-0.006245077472963387,0.13750848427516948,0.062129092919975,-0.005243304614072474,0.07288226826048814,-0.02436713014686177,0.04415346939125135,0.0037277501609153936,0.12217360096709183,0.04112707161593854,0.006309127770341619,0.004484563994476978,0.01628253658698197,0.026613178548462776,-0.034550429027359456,0.10925441115979181,-0.04573593796473661,-0.025416111727836754,0.041629639286614555,0.05634304783844791,0.007774424801483821,-0.017787366372060052,0.06958854855738665,0.06556536503117008,0.1596559499354871,0.05147355470698098
LHB,,,,,,0.033835211975833515,,,,,,,,,,,,,,,,,,,,
PPY,,,-0.0021864718890649546,,,-0.004345320205788304,,,,0.008367630633619711,,,-0.0067380784334777335,,,,,,0.043566577558378006,-0.019629245186879793,,0.040034668725945514,,-0.003911443310216694,0.07525644731875578,
ALKAL2,-0.020718711611195935,-0.011762209731514152,0.04747355830762329,0.003095146132650919,,-0.024656835805683956,,-0.05071302308723444,-0.024198297616455963,-0.00637406751933718,0.017055454121100502,0.009531194483640053,0.03511091939208815,0.030054484529089556,-0.04684303881640318,0.020946560125836365,,0.1012797466381964,-0.007799483779299775,0.04226252670692062,-0.05964429259976979,-2.4761559125719498e-05,,0.02024075617897243,0.010500037421369747,0.0480758443889269
CSF1,0.06867369618617014,-0.14415140475518554,0.05245656577964341,-0.015253353847464271,0.06439897268354038,-0.018821643445823825,-0.035027987665484026,0.019980312358604712,0.088192586351861,0.02893024711336826,-0.012900563019922857,-0.015215815272101722,0.016502326168267856,0.01886245350727354,0.09307549198014352,0.02782317607639609,0.09636480692897106,-0.03923049223526766,0.04415589415813656,0.004291080450409653,0.05429242773557709,-0.02187449264240255,0.05486479927963612,0.037403996039497754,0.09979280334614915,0.10443268186716062
SEMA4C,0.04505604397688334,0.06338931921823687,0.01672987211789668,-0.030075561525978622,0.1148448851499129,0.017467556699071938,0.09097513030534556,0.017959630026140885,0.004107379785240974,0.01139062859499938,-0.012348308220125054,-0.050249185231013224,0.004576713733818584,0.04028398171203056,0.11159438159482685,0.09735638623949087,0.018723690760461115,-0.024530688909268527,0.0035013988820111123,0.048993570702352246,0.007211027382199843,-0.029427718805607603,0.016089000703559547,0.1248923937655637,0.09136790841625789,0.03967853026621149
BMP8A,,,,,,,,,,,,,,,,,,,,,,,,0.028542423435238072,,
ICAM2,0.07990102781315872,0.13907903454620038,0.011518294150398976,-0.05113414615945292,0.0008166809831502495,-0.003590941905024218,0.07739742068972873,0.033537176863647725,0.042926128964105977,-0.03930256674977495,-0.016691338755913433,0.0223762430610333,-0.03315082197646951,0.0921910282593354,0.16444604449336392,0.0040786802921681615,-0.026711617323927062,0.08551583345649111,0.06107540223884717,0.07066214924789,-0.030721275001977837,0.056429018814933896,0.06546449126297331,0.05633249151877042,0.00041813540893680026,0.11858365557189442
SYTL3,0.0024988976007489063,-0.05014952369657407,0.04296754230071157,-0.025393700640323237,-0.005888335509806471,-0.007198213282406877,-0.010507394183839105,0.10263995275743983,0.11902448261218396,-0.05292324205611347,0.018735184448154786,-0.03572794588941814,0.09124617577125117,0.0501217844149857,-0.06200264403198528,-0.09550071636093638,-0.10572548300512254,-0.004352402608172525,-0.030205569920482445,0.08412557857218389,0.041626120730910945,0.04136035034486021,-0.005782463275208961,0.0626554794007562,-0.029287022438416098,
IL1A,0.025638638070020734,-0.024227370108355527,0.0625375005394085,-0.03337485770064094,-0.052738920394624154,0.02356749024970517,-0.06880274611633029,-0.008292343717592522,0.10622447781586115,-0.05428855203142811,-0.0017223739272417716,-0.037927450864151016,,0.057723784662607386,-0.06089919058753576,0.06359227343182869,0.06120967090659452,0.05526128087121474,0.07345639251823789,0.02890051862589765,-0.004988063411586932,0.0994229210283105,0.06902795173468593,0.0015717886383724202,0.0220536384941345,0.021909889477723547
HLA-G,,0.053929845428837574,-0.011629820241138998,,,-0.036421594956774175,,-0.02629249014406894,,,,,,,,0.03990320856587094,-0.0014912712513003457,,0.03750022673281271,0.06430369756821801,,0.052584583894478135,,,,
PGF,0.04117866245721009,-0.11625671114062297,0.046985350408977396,-0.025351912280914816,0.019340524867102558,0.012965402111800129,0.0497321411442548,0.07364061261810054,0.14913571924619837,-0.013218270225581117,0.011864167723580439,0.008164958400904834,0.007330042830932039,0.05598461025182646,0.1090924315813118,0.05297153227572561,-0.07714473644586657,0.02066901990925217,0.07130336277097685,0.09393163707230613,-0.03340181559826259,0.0008997239710100246,0.035841339845314506,0.0871576694991147,0.02734311440562736,-0.037263125432431224
LGALS8,0.08567063203009204,0.02984813573918687,0.07168492061108293,-0.023901777010723237,-0.0026958360698207903,-0.026904764965130886,-0.019610134643555988,0.03430046255425992,-0.0035670002507316775,0.03824662652130456,0.006592550765933197,-0.016914114886967153,-0.013221723207602898,-0.019846185408080336,-0.004421847197167516,-0.02348061124549675,0.024292307662861057,-0.09375512211154238,0.010065501805447899,0.03924914402364529,0.02368756991706002,-0.023868918013269756,-0.014560271927384887,0.060572194354595994,0.064126928612632,0.04869748088243674
DKK3,-0.006729256446675177,0.11797918413432054,0.013959516552561748,-0.019270420313292517,0.06694351951536036,0.10101076970519816,0.08434320403175241,-0.00029868585489634987,-0.10738213329037341,0.022600832457708477,0.06035101389913204,0.0025595922583799757,-0.06444314549276824,-0.021028934397162177,0.050206156878701884,-0.03737857388405189,0.041117545038789546,-0.07248022319759236,0.07673215802724526,0.0938460602935195,-0.011246951494893147,0.01452219781480955,0.08252091733528463,0.07788574826047949,0.03729293318827842,-0.09104799930012551
COL16A1,0.0651181615303573,0.05726044990491205,0.03392750559574735,0.005238286030556282,0.12120401069632732,-0.008994038005208788,0.10140644356840589,0.004964454661821366,-0.034320782960631756,0.035370525264288376,0.02151351716561789,-0.050209063890474054,0.01627549799727156,0.022645993581441187,0.06521484684511328,0.07618328591557841,0.0068631302672996115,0.004076232859855004,0.01139521245319433,0.10085893000063642,0.029860137991896716,0.010877550369455497,-0.014839109623516908,0.0870830380628162,0.15135820165389605,-0.0121026199141501
TPH1,-0.007034886008258977,0.011485007126307602,0.01666919200516893,,0.024406182717319622,-0.0158339872883889,-0.02930323671802303,-0.02786055981077313,0.10184643472941268,0.00864651154699726,,,,0.055467392046666786,,0.04097276615286246,0.04954206328393232,,-0.034633201884068696,0.08688085058146164,0.021992442309644717,0.011709004631992148,,0.050440372025690974,0.0014917625396501499,0.08495436531221334
TNC,0.04384898081511289,-0.03770808208694801,-0.0034687509550821627,0.019911796516807998,0.009505340656249705,-0.005367594865424521,-0.11317413814521317,-0.0054276793950659855,0.14741741628570734,-0.03944143868124041,-0.04102595556426642,-0.022428785445502492,-0.010147261376511323,-0.008567423520997283,0.0971191751083237,-0.0853326976252384,-0.01401760622163012,0.017265689574352493,0.05703043634896352,-0.008801921553578795,-0.008976747860656619,-0.020594365752313208,-0.02335365305012968,-0.021267496031819787,0.033251808212170594,0.08883857287574598
TNFSF9,0.13155661017410045,0.0966684944220211,0.022008499040104466,0.055385486592223344,0.042852296775790416,-0.014866249676432203,-0.02418637424525111,-0.008056999670917383,-0.03995468442258126,0.03157672045114788,0.025504152527428884,0.007854802103986343,0.059840488989087344,0.007018019588867337,,,0.05555757241650508,-0.005072041486098655,0.029664972213303,0.008345029985294083,0.03963724062727878,-0.013648239914020449,-0.028505062890509976,0.03129337964955909,-0.054250216699061146,0.010499102543389335
C4A,,,,-0.016482918053053974,,-0.03341838203850643,,,,0.008536692703054734,,0.05744272104831946,3.494488253358548e-05,0.02078490415826839,,-0.0038663447768933898,,,-0.04529490642203595,,0.08647829497386213,-0.010257391678169518,-0.020001906474307746,0.005574196174849568,,
CNTN2,0.03211965248364482,0.05048304364980712,0.033179673046385166,0.007875398399702785,0.05875182270417048,0.02596228790725152,0.07518407558853914,-0.0008090184085397684,-0.0035701474093489836,-0.03131969001159414,-0.01470688506149417,0.024126701458211382,-0.02945956884745066,0.05315365838186095,0.041382660437202616,0.10676885604308091,-0.024654083261003153,-0.02788843129660411,0.07175349313883024,0.12842204388081987,0.0435188039790493,-0.02120592409529787,0.02117506071485819,0.02414394540217856,0.03489719899524304,0.10361844524223876
F7,,,0.009043400647044834,,,,,-0.007747670929684062,0.021467312810520067,,,,0.0058372380656027175,,,,,,0.03789490721382179,,,-0.031722173167616476,,,0.01530978673640837,
LUM,0.0668347325484375,-0.020882458643188655,0.020288073714546388,-0.02430155783828111,-0.008170597848564715,-0.03815341427739962,0.02664390280598719,-0.009590373315002761,0.09865850004077477,-0.007107116870560041,-0.005707916655928355,-0.030456698786938647,-0.03783941769670503,0.024028771672095477,0.16983127502156492,0.07489528992949356,0.06843453681124297,0.03018637729654187,0.05829250777227399,0.04363620597312659,-0.06584157328516171,0.03630804468893404,-0.018987830768403362,0.06361098338294632,0.10600368334067738,
IZUMO1,0.050324241461939326,,,,,,,,,,,,,,,,,,,,,,,,,
BTC,,,-0.03394969095283964,-0.025792839232894,,0.02622515831779746,-0.028982113720817146,,,,0.016893053302144634,-0.005033945166612396,,,,,-0.028131169099476643,,0.008463004431321018,-0.022849696261211642,0.014151879618258636,-0.018447350626334874,,0.004112051110983262,0.043014367816323285,
APOC1,-0.04390957492116379,-0.045645742577249945,0.06430893078742053,0.001629621937052394,-0.034210340611800574,0.001623962654248743,0.05061981004464311,-0.029745762592019803,0.17371415381417343,0.006276086587127216,-0.03130762212393326,-0.048555156977954275,0.011831266842091032,-0.044608738899857184,0.08006583618697322,0.051026466527476944,-0.09805369881794102,0.0371085743531836,-0.033752515794756965,0.07195223031678255,0.001979228412645241,-0.03455005592825352,0.08282170910488512,0.0782025245509065,0.009923862133617237,0.012546361241151594
PKM,-0.005952854603864669,-0.10765743981492647,-0.04337163837366541,0.0076646060305114675,0.0029510673711798598,-0.015727192050374532,-0.08976679713667018,0.033230992675738556,0.016483592282329592,0.010616548210304498,0.05957881493362277,0.06974458533127315,-0.019447518480487484,0.058736767882175155,-0.04542455325960174,-0.05051815264506136,-0.06300341013649567,0.05852026636963825,-0.009953217545795246,-0.05733543344402494,0.01564325725456069,-0.005765381742499761,0.10109468663011817,-0.012742739086594063,0.03453937632204689,-0.0038137606434985663
TNF,,-0.0028740882681150253,0.018291000061376884,0.007861889082505326,,-0.05276075282671811,0.03486748752216276,0.06323349238858958,0.02104333033563593,0.022099117876982297,-0.029386642259943276,-0.0411541244392795,-0.025408173626688367,0.004018190270245276,0.031254328935438565,0.06342767292752785,-0.1301257327832669,-0.07387654338209941,0.018294542947781062,-0.04319128189733009,,,,0.0596152470279599,0.07579108419757927,0.0004151616226121397
GNAS,0.02709081163405942,0.018704779634390233,-0.0019122320566396284,0.006521122715293171,-0.03070097181737997,0.038529626514033265,0.09692296825565211,-0.0007587760359682088,-0.08890835306361035,0.022705905940820146,0.036961887001284575,0.016117336698836283,0.004884113896128342,0.006625017645730972,0.10006585649957052,-0.10369416454759675,-0.05621694062924383,-0.01121688294287055,0.004133784994349364,-0.04436927388038487,-0.07673227423761396,-0.004619475520460349,-0.03001060719516687,0.021964353709128675,0.08092270395990925,0.0010823521032749597
BMP8B,0.07360270168251244,0.01725658725535203,0.024092219255516755,0.035236196223476,0.022922608462268124,-0.03407729453784843,0.049890895448550555,0.02546844112602233,0.01741525027476232,-0.03723528763593132,0.009451467309563387,0.10719889698582637,-0.01876568872758868,-0.0013192057319863803,0.058618865466050336,0.033716513217941266,0.12173234508447629,-0.01168372594443114,0.04397509576522616,0.06252199644197415,0.07391707185067273,-0.015631756784222593,0.21317260763187357,0.08714739506042271,0.08906959453750475,-0.019028977521130266
LIPH,,0.04782157230361521,-0.0011938269986077061,,-0.025089892482227788,0.024623932662090384,,,,0.15097752607408768,,,,,,0.03866600869447919,,,-0.021820395352284215,-0.010082708207890997,,-0.034687948776695045,,0.05621484471117946,0.010774379571792177,
CCL28,,0.045405963567965994,0.00630671327629015,,,,,0.009514353656702045,,0.04833373772854214,0.014901346917853938,0.018068289169551995,,0.00031054236686961853,,0.01953821567694453,,,,,0.0185815600670401,,,-0.01726950215284742,0.012332924599254289,
PTPN11,0.057806938296975266,-0.01023489282542076,-0.006366213694449487,0.03362810169341738,0.05833947706561607,0.04413083419983047,0.018369129381410877,0.04015197451543969,0.024366649693980537,0.03848058052324586,-0.0515585524795329,-0.06334288256915868,0.01194678616817316,0.0417398734480712,-0.11439846969891615,0.04911014356070686,-0.04895423478508644,0.023186344121689097,-0.06392892684332191,-0.026865182954241597,0.017277882747650693,-0.054529687856633556,-0.0898946576781145,0.03745731922273398,0.01742927817000105,0.03747014887964458
ADAM12,0.051720399296149806,0.05654001940282869,0.015540290673854597,-0.019627969852670395,0.11655506663179534,0.02551290248247641,0.02132125581083478,0.025295314022511634,0.08639920420374732,-0.010857212771510867,0.030781892109952,-0.013839074352463022,0.05972238446700682,0.08409234615668623,0.11403503717060899,-0.057848404555709595,0.030842042587252778,0.014864514826789549,0.02220511326089617,0.050665570688181054,0.01671614758026476,-0.0290589505264551,-0.020649580716130378,0.037567391447237225,0.04353008463303633,
EPO,,-0.04910063199023436,0.05504429692227153,,,-0.009046201061792871,0.03167075404307852,,,0.0520615060899052,,,-0.005599315792490812,0.011584101629827495,,,-0.06024580299200255,-0.003118277952966422,-0.026522681135960187,0.0005210140662069303,,-0.0482194399931601,,-0.007755115101402113,,
EDN3,-0.03683886898942467,0.10817578268555893,0.026093367518506185,-0.007175713130114283,0.040539788962478736,-0.03864833904827786,0.03245720951952499,0.007459966509299668,0.03878660361767097,0.12253341457393913,0.04119032475215579,0.08243756526318897,,-0.010734496650417352,,,,-0.005271175753980335,0.057432581479031374,0.024674339364156462,0.0012667035162032445,0.007887427630707013,,-0.03313322121589299,-0.022585019606706173,-0.08205944181893887
CCL22,,,,-0.020838358976043123,,,,,,-0.009426409230238155,,,,,,,,,-0.009018970418715803,0.023955759859887984,-0.05050972546264616,-0.04940925564391225,0.08433051584626523,0.01473340889976506,,
CCL2,0.025106163405497456,-0.05479538641817114,0.08460810341691252,0.053766048177781536,0.06263088220974411,-0.03881326147667522,-0.09186962579742461,-0.03891538128372525,0.026094984872348785,0.028160135227354006,-0.0192410067388691,-0.0290020301523988,-0.01900594600823179,-0.0068976479021903,0.15709709260429636,0.03855147304005039,-0.11909477285757716,0.003934727949399775,0.07106729595703434,0.0065627580175547815,0.025734592393340028,-0.03764052498648118,-0.00433447100048267,0.017978063319312846,0.007179677856868421,-0.01246913772849231
DSCAM,0.05052581989006555,-0.013705123064832939,0.04549953646306264,0.023540074149542047,0.04281767065336825,-0.05400772162473847,0.015240899974965746,0.030691760936642675,0.05616473355715633,-0.04314731854577301,-0.013069675845845737,0.026124543810581723,0.01469527393053572,0.04486557996551581,-0.0394385194234194,0.017214466579273655,-0.025902998086807055,-0.037864552400250925,-0.0025943354725637023,0.09372409693910419,0.03610512157681686,-0.04777518434625085,0.16110926919161775,0.045777375992162805,0.16324190281352985,0.0891530262165064
GPHA2,,,0.042962614128854625,,,,,,,,,,,,,,,,,,,,,,,
ANG,0.015527898605117585,-0.05195914586890286,0.01674144541994204,0.004843797263266768,-0.02827433288284785,-0.004182786596178142,-0.03038295409983149,0.011021260740184141,0.07791119231780998,-0.01165750801235366,-0.019116108323288732,-0.011837974375233644,0.010539422826429447,-0.020556544667208933,0.02030839820549562,-0.059339898898897944,0.05006021802051187,-0.04321264636871899,0.015090921921531577,0.002584435910781184,0.03198344794774993,-0.011351715792896433,0.12435127219361938,-0.016091520300834813,-0.006479815581099412,
FBLN2,-0.019031946082480166,-0.03859576922169538,-0.037138519784543654,-0.002640655040722739,-0.03440407342747532,0.01203208691103298,0.05567410022741271,0.05619892701572585,0.02706717661910676,0.05462934959690418,-0.01953502797079174,0.08015443644108339,0.005784830176924392,0.003162808678167617,0.08191016568201884,-0.01811394332367677,,0.02407545460174664,0.02994020659904495,0.10064608652442132,0.01742708351555895,0.002174339961543417,0.10822714080779884,0.03981923568827564,0.021452025108244274,0.007068365093077268
VTN,,-0.020419691744141773,0.0039458692970245545,,-0.029272010043478958,0.008935900581753245,0.024277995484502737,-0.027860550700344953,-0.004644557754441087,0.02417643059387938,0.03610444659017148,,,0.027770680880524062,-0.04216016038127106,0.12907416518252351,0.023140650564652657,,-0.06377846738638543,0.014576730955879774,,0.0821318574571431,,0.05344760738365876,-0.00772790880068633,
VEGFA,0.04608973308074703,-0.15590949473298246,-0.06694796831500159,0.05380526332007827,-0.0599651375569664,-0.04789494957450143,-0.1250721762179,0.04231316422350381,0.10355460328467203,-0.022653254140311867,0.031070489839662416,0.037562395613945004,0.0017166931682884674,0.04649477810771081,0.003547759407466633,-0.10133204467305645,-0.07329489335112462,-0.006223654707923764,-0.06317569270558322,-0.1025236779748134,0.015290753052611208,-0.02635300130683738,0.09103407948580847,-0.09704381814786571,-0.04667350511638025,-0.07270115249926101
F10,,,,-0.009608253692669454,,,-0.029350368357660413,0.02563393553020581,0.025258884036662377,-0.01911114589034336,0.0035585725789968174,-0.02390405124039775,-0.014934792764085733,,0.10576594169658435,,-0.025773491185313288,,,0.027759656795598386,0.0012619207821314713,0.011766566914810522,0.03387212522676489,0.06624161545916947,0.12225994097380459,
SERPINA1,0.01180495779466555,-0.03832151369748521,0.045555307992187,0.08363922494055956,0.00674192342200531,0.011145241134178254,-0.06782267997534368,0.02454349203639491,0.10791593634842138,0.01032969245582572,0.04992002505346013,0.02459737586939766,0.07203314306882583,-0.02433514403379811,0.09851994021816139,0.013663896375165978,-0.011891270063897556,0.022780622245104337,-0.01700782766058312,-0.03749346291080034,-0.0018001646587719842,-0.02883952331878964,0.1199046194453499,0.05902376955288745,-0.010230920990627291,-0.08723926713337458
VWF,0.009466432955336949,0.15222454127436968,0.01310365154260308,0.0438776166486209,-0.005545056497790037,0.005870928905129415,0.08066683478524726,-0.014985612007625087,0.13473322702930057,-0.015798339945926408,-0.03231330227571842,0.043046544264704105,-0.009134206016529424,0.04651938349278549,0.11615495245100513,0.19228473190013676,0.08931869059192958,-0.028424079348889075,0.0571258138546249,-0.01652818798949649,-0.05239919578311192,0.050288486631202,0.03511888828294225,0.0759065746854562,0.037028939698813344,0.024243148160330703
GDNF,,,-0.039705629987516144,,-0.008843184402417693,-0.03635193841066832,,0.04256048592519796,,,,,0.003744676077171723,-0.03213479230268914,,,-0.10419704536175092,-0.015901634945916846,0.07249464139631466,0.07331913507482436,,-0.04795997200355359,,,,0.07256836811699308
VASP,0.02692218369883981,-0.16416305291778682,0.04715021137837872,0.07291995037999757,0.0012872150070058282,-0.035403415293962945,-0.03901853937405862,0.012920919484545278,0.13004765254446551,0.01251311322609168,-0.02673228731304872,0.07807987372464952,-0.03117867328465394,0.03243363567098162,0.09208576001432237,-0.04296573585156187,0.0017847233191656366,0.04135802850095934,0.04988196590505707,0.07789660317862067,0.002482816445869994,0.018978919564403517,0.032988474885932935,0.021505308999737113,-0.010782569230488469,0.14777093372978348
ADAM15,0.08984516530155229,0.050303871359658324,0.02152901194041068,-0.003934968128222659,-0.005735947751474364,0.04222765370277232,-0.001588709223056664,0.010269484464580031,0.03325602869917396,-0.08345865227197717,-0.06086285527925682,0.013170981857023863,-0.045755749055963246,0.015196371638866913,-0.10243431915821044,0.13720169500589957,-0.019704311938146195,0.03173223734653577,0.025727276603766537,0.033087925427029236,0.010605021255803577,-0.027356114828823837,0.04499665517100782,0.0197011962363881,0.03661758479226814,-0.010702441812788602
WNT2,,0.09376728316356364,0.004206024547896628,,0.09748555337126869,,-0.04009054489211483,-0.029095910305623966,-0.02161661478934434,,-0.014769013310525613,-0.022846732296695958,,0.06599693069291888,,-0.005554106329102529,,,-0.010369426558881989,0.007097589862096376,,0.0048815913743317655,,0.044600020751378665,0.0008765089110354773,
CALCB,,0.14448716556404967,,0.0709216489198368,0.002791835525557348,,-0.03885651860222126,-0.028239648597974887,0.024415218994593525,,,0.01927321198408472,,,,,,,0.08734442652765789,0.046560788162952386,,0.029171910616762314,,,-0.0183975944400984,
OLFM2,-0.02935471717531641,0.07297972056627636,-0.013994179849661956,-0.05233470454293352,0.011243468950062327,0.04011382053595729,0.09447139659929998,0.012633587601966768,-0.05984097533712187,0.005022725728465764,0.00389523829522302,0.06193384359276585,-0.012962538503586486,0.07723265449949901,-0.016500881874526096,0.050612334396848674,-0.014964534605738771,0.004538214416178098,0.02484922547582262,0.031077315811911733,-0.07576794783971384,0.020239992788874495,0.024162207842990172,0.06517823325786909,0.11773029749072467,-0.03872436408243203
MFAP2,0.043039509313150225,0.1253088138270542,0.021893301074368477,-1.5211881849169865e-06,,-0.004503973351774434,0.06811941018468481,0.011876343811531728,0.14589733830768611,0.0491739365944551,0.01681772059140835,0.009773036927852268,0.03336566023514708,-0.0236131299077089,0.0838584574407243,0.043020766437609236,0.06283267641327524,0.019310181843516985,0.028869649405333868,0.01156742493159782,-0.009683781184696602,0.039307189421773706,,0.1164789002066078,0.026682583247567757,
HLA-C,0.021711729454594226,0.013812732531185841,0.04744202308495732,0.06315645932216642,-0.03271293207427232,0.0052567950557161226,-0.0376274658077561,-0.01427009442549863,0.1570526288189838,0.012707194703145413,-0.02297789018311012,0.006395350289369928,-0.014648984687666474,0.040892984426680275,0.0587364228936107,0.05120461087572872,-0.05334419001852721,0.008827420182233751,0.05256622304223312,-0.014290611585419704,0.03267297443073691,-0.009749618693164024,0.16945316182493128,0.14910963225941568,-0.03193258273791334,0.002857050325185156
THBS1,-0.07415740646154323,-0.010630587672061384,-0.02755530459359957,0.016285156780844606,-0.032833289506994476,-0.06441827596073603,-0.05654565032151952,-0.0012063340934488976,0.04246526345935121,-0.04066780309309743,0.009891235304117948,-0.0008871670845943808,0.0025231686439542494,0.018086402014577053,0.11639337876111416,0.013562524971950075,0.03842619388127559,0.02676317081164526,0.015988844960197264,-0.020826516888064646,0.08925380391918455,-0.027190595411460898,-0.02340176211955386,-0.05004376835587517,0.0235247197266452,-0.03853376326486173
HSPA4,0.1080625333913914,0.06665825157747829,0.022367399217045947,0.06661749440054487,-0.03651055058886046,-0.029396965758786364,-0.023166073453953575,0.04556715983975607,0.07495973533554623,-0.0442893866474258,-0.008952443140798285,0.00854485414273792,-0.024018108114265545,-0.032723835466218015,0.007568939746307657,0.014547084558614495,0.07201209982427863,-0.061663208222566254,0.052204839543764,0.06977218153831788,-0.03210570976944586,0.02237898878162103,-0.049547234099087165,0.018977907522704687,-0.0041429757085542475,-0.0010231415307545696
LMAN1,-0.03521895742981621,-0.018552061421514745,-0.02367343460082972,-0.03657674115635501,-0.10552441767610062,-0.027659249504187938,-0.06050456608810655,0.025208367377185334,0.09854909365286776,-0.013249252370342399,-0.06039927429701586,0.0615093965085718,0.08085625673736672,0.010784768488661046,0.07131481970188977,0.004648382278564669,0.042050799244589376,0.041798649630849304,0.004322714298558813,-0.06906907062787994,-0.04563322975214286,-0.01965489360929407,0.03576858332626435,-0.03603393246673101,-0.004351572323663998,0.01776153285018477
LYPD3,,,-0.03769655200278802,-0.01920863031378798,0.1499123547141169,-0.02268100146873155,-0.04989165194497305,0.01702809715834998,0.06132820807196109,-0.005502857961656716,0.02889090895769559,0.11223942828535216,0.0054704889613702585,,0.08777548293543878,0.06385683205986958,0.054084393389626936,0.059916283308388614,0.05119495674415355,0.08520882106180562,,-0.020658023734442994,,0.06220089858613052,0.044184817256681094,
APOE,-0.07657622283402224,0.02100206518846319,0.01141652262968097,-0.0023244047790759513,0.024264998254868178,0.10661681043661761,0.02186446343978119,-0.037657741352899274,0.029206024306380005,0.03624896195506754,-0.011630050533680693,-0.02229148733345442,-0.05528962712353771,-0.013156853226012719,-0.043875895579208464,-0.0404824623583797,0.0802014194511166,-0.0953203001392765,-0.010012443812430098,0.0021987104383182506,0.017129831057953005,0.00862676766312983,0.0591331337770355,0.06182124053295173,0.08608745857701382,0.04543349927678875
SOSTDC1,0.024601837394973364,0.04227806796729562,0.022700726294332833,,,,0.006510619410697299,0.025859471584393237,0.017046110367045755,0.012587241634918218,0.03367154626718767,-0.01112918727320958,,-0.033394571947978686,,,,,0.05298819662317363,0.09984991165318843,,0.027281202403532673,,0.004706420501971205,0.06123305231670331,-0.08559801626234968
ANXA1,-0.05467067388809549,-0.09053357445212762,0.011332846020193015,-0.010834464305167652,-0.03234796278144808,0.017489839436108035,-0.08436684781143562,0.011094894921816771,0.1173406781124337,-0.02801853215382967,-0.06950627091927974,0.006568010621801058,0.02303585274113329,-0.01653301255572809,0.022698656794629516,0.017209818819110684,0.03220842360501195,0.008841609918662197,-0.022563418048372343,0.0034408382925775285,-0.017467431976729633,-0.039819865689963825,-0.003219272498009824,-0.04781635768386365,-0.08014726751103421,0.019618226970564406
WNT2B,0.034828454614438016,0.10872952542683853,-0.024281361392746465,0.021629543044251073,0.0615396290859216,0.031038518231641853,0.06359665881598586,-0.007012591949119002,-0.002289635729961189,0.06354747317670809,-0.005087014627281624,0.035144903874869377,0.009747042377146211,0.06378117414642272,0.03405082621299878,0.0333094530590346,0.026125476713229893,-0.07760839912057008,0.06422199578238905,-0.006479674018017568,-0.017997187683486255,-0.022940372360722255,-0.022697571141801896,0.03260216117338774,0.07631769630698211,0.09801963443730935
AMH,,0.04634978404275728,-0.009888998857316771,-0.025792841946192,0.0361585368986461,-0.01142814642856641,0.08445040326741562,0.009447968489213282,0.07562874053313565,-0.0050253508458211115,0.01947330591117541,,-0.005022450379696149,0.05744468987041361,,,-0.02758708015083701,0.0058224340613954075,0.02687556524360296,0.09690501796871957,-0.03875699400155979,0.07494921338288485,,-0.0217966814343889,0.08115299674715848,
GDF10,,-0.02350078016092108,-0.0376087083023263,-0.021610023300324483,,,0.07994582425708072,0.035719732604504804,-0.05702970575996985,-0.010040995067078203,0.04790094177850407,0.06294682729982291,,0.010021253332938082,0.03630766231144765,0.052540923996373085,0.04062845099257985,,-0.01807769199481286,0.0699194519854294,-0.05138765118625379,0.002316773298350502,-0.0003926695895911594,0.00392810976984344,0.031967222450330596,0.06432633646306433
EFNB3,0.011297704611735893,-0.0014067227809817504,-0.013258691932736578,0.022408741743304414,0.008208756455004245,-0.009929397904415634,0.08804974574989348,0.02250072351147749,-0.03973188316895901,-0.005070044198421239,-0.019500243516778766,0.06659846668543241,0.03872015633568702,0.028327105867419173,0.061366629627916655,0.018809681404596754,-0.03141592022617065,0.018208120764866866,-0.015376772019016365,0.11553783880511025,-0.012729307916778511,-0.020045030855592318,0.063222035402153,0.0760091751984365,0.01169679275436209,-0.012633699678202832
LTB,-0.04542161820568313,-0.0004317111334014093,0.01555285913849072,0.012388496974291622,,-0.06178672515251446,0.027211656009688622,-0.0019223628645512224,0.005694804352407133,0.041301086349864506,-0.013336335375689283,0.0075344143568185015,0.007239383702324954,0.01765770264528821,0.022008020636343013,0.11025431020544059,-0.02897652734746073,-0.019878008764138314,0.010452621065165554,0.05595974094011208,-0.026447588887780052,0.003506529120810713,,-0.029500527228576084,-0.004429664149006878,0.01147015134673248
ANGPT2,0.08556261823090341,0.08906053093800899,-0.0036068651286190307,0.07179862745404106,-0.05459852838342796,-0.034454488976081096,0.05845202009495172,0.04232703548903943,0.14657704892547657,-0.02136071870171642,0.024652682222831044,0.0022703674266394062,0.03674417550542366,0.012988071380072184,0.07650113779530958,0.06596349671797808,0.021632783863444714,0.0866361817034336,0.06882433716603199,0.009312315074565406,-0.047955023270683024,0.0007587171466348489,0.11228552183211529,0.09288824407715071,0.06108612789590382,-0.05849445795652428
NRTN,,,,,,,,,,,,,,,,,,0.041037258222694314,,,-0.017427582149232006,0.05971072855162793,,,,0.0722774068233
ADAM17,0.003076813467162477,-0.04745065554424509,0.019189192984757294,-0.03146214971604632,0.05856393690591265,0.005657179842341372,-0.07302200627386458,0.08510925764403422,0.07964709238734606,0.0009642919791634165,-0.004533010344879937,0.05340629452926436,0.021709935597865784,0.0445896697251611,0.07980405472419762,0.031226055117154136,-0.052202861734671986,0.06434351131791494,-0.02225569888418296,-0.012006677315461213,-0.07129633804150357,-0.045293906360341175,0.06786118441615197,0.0705167997542256,-0.016470002888106072,0.027956614054554275
