,MGH258,UKF243,UKF248,UKF251,UKF255,UKF259,UKF260,UKF266,UKF269,UKF275,UKF296,UKF304,UKF313,UKF334,ZH1007inf,ZH1007nec,ZH1019T1,ZH1019inf,ZH8811Abulk,ZH8811Bbulk,ZH8812bulk,ZH881T1,ZH881inf,ZH916T1,ZH916bulk,ZH916inf
IGFL3,,,,,,,,,-0.019417556563115602,,,,,,,,,,,,-0.046153760620946276,,,0.019707483642936157,,
BMP1,-0.04800131827426041,0.024916233434328184,0.21091899668231076,0.014103604305565842,0.014179839355002761,-0.0024635227469043566,0.08822242729502096,0.07390022939257043,-0.028129670113863685,-0.021591734061746734,0.03584425146663287,0.1071283134887557,0.028389201042339725,0.07069536447423995,0.1159675878617197,0.21675162554138633,0.15881399422611267,0.0468107493809223,0.10650149729001579,-0.011324474124974393,-0.057308483657680445,0.12671607366047552,0.050826723860231716,0.3939737108009554,0.20344691883336707,0.11603968588196886
NDP,0.013500145747927335,0.03320625535765001,0.03435421262834108,0.025916723100449138,-0.015552286957260875,-0.02377847989801264,0.016715177268615645,0.015950570308630424,0.031188644091158516,-0.006863513071636437,0.023207012676957364,0.12794231195288167,-0.004451270359725156,0.06736279485597875,0.06794751510685779,0.11744177589865899,0.004616263240171144,0.013243881269700313,0.06478287452011487,0.05801471354838502,-0.03771264636851573,-0.0940402093051464,0.03620878800304364,-0.017221882189318947,-0.0147013764683161,0.060262727008179834
TNFSF18,0.11758357419148409,0.16817296785017655,0.08642271283423657,0.0011483853781349487,,,,0.04993185182538043,0.0212207580893042,-0.040414390704785676,,,,,-0.05272128685418426,,-0.025385055194038567,,,,-0.04807571267977739,,-0.0020280580893211903,0.11720771883239313,0.018137790474064303,
IL36G,,,,,,,,,,,,,,0.05320559140016323,,,,,,,,,,,,
RTN4,0.1540124406096765,0.1147015203584544,0.008478214256669059,-0.028596346736024104,-0.012598695497929465,-0.05540120475520921,0.01769137487974188,-0.08581154943569297,0.027457968900735607,-0.0011001886835495225,-0.05221351992019384,-0.20415952689986033,0.0630394697177698,0.011057596153832724,0.10246404263139744,-0.10207621444547968,0.09672320414435732,0.0763785902724982,-0.0945239382299391,-0.05139207440386643,0.2663201351710987,-0.040564907192699555,-0.10153888167418633,-0.09277924994562729,0.07138656433073526,0.21624536358394092
HEBP1,0.06684712254063582,-0.016150280024595082,0.04613021804111895,0.018909657099381527,-0.0008008153113471193,-0.0033746490340440666,-0.0007568459269324879,0.06418057756338415,-0.042184180124034486,0.03213264200147802,-0.001914187136357747,0.19173320452909604,-0.0059853415972446825,0.009256149165084363,0.039629508107036415,0.07005402796055578,0.06452165501446916,0.0027711856510504807,0.04922265543151014,0.06614169962192275,-0.011616921729715355,0.09188865370948993,0.1380252861471436,0.12902320061517375,-0.04643208309186127,0.16672039109159573
WNT7B,0.08444804977067853,0.031226046148697593,0.011788954573383647,0.08791160566407041,-0.05564485910790828,-0.0010642687749029957,0.047745658330513974,-0.04900216800977546,-0.04285310879468339,-0.033136069314695905,-0.012826707278562997,,0.05186126487755714,-0.02061034845671013,0.1489211746231581,-0.11842758633227665,,-0.03694617240017181,-0.0031290201258032525,0.05216332028192369,-0.002898099307946213,0.025269939248659345,0.027590855217350604,0.11380458462648645,0.03684858623976954,-0.01677135294543666
PTMA,0.0670647905506981,-0.01936499018991192,0.05348865141737667,-0.0025939300188752724,0.09189855286759066,0.05246124310349756,0.007535513187280599,0.17317851132618967,0.0600765654428679,-0.0177653219004535,0.020143699034523673,0.352744485569897,-0.02075657462830066,0.10018094676181098,0.1466340374680884,0.13925073688013154,0.04613257865767763,0.1016845298798334,-0.02689124315598592,-0.07710969877317282,0.24409508549454906,0.03631150338872808,0.1819892814846204,0.32714284812490874,0.025802974025455398,0.15009259317338197
FASLG,0.04320859853280867,,,,,,,,,,,,,,,,,,,,,,,0.016969352402485607,,
CEACAM1,0.0032684171508452838,,-0.02186579627435252,-0.036889105766809684,,0.025934658059096803,0.02539443449439616,,-0.04273275153796865,-0.014523835157403166,,,,,,-0.11003404055933695,0.05563928917757893,0.07689999703537305,-0.024740217105081112,-0.011539738329294008,-0.03326012663044719,0.018025683195009308,,0.021925316822547246,,
PDAP1,-0.0867232954267476,-0.016385935408394618,0.053870314013453706,-0.02854867014807017,0.025765222486854783,-0.021950838674700858,-0.022059812209183998,0.016309345923406608,-0.04138616920003195,0.017245256417996974,0.020207926841009076,0.04651064282598793,0.0008429829104363447,0.0406878169103254,0.06514507144604081,0.015447005734306712,-0.07894297014544158,-0.011847050099881148,0.007437242601447132,-0.009567652511796334,-0.021506022718312194,-0.03240972077237932,0.048874931550549616,-0.05448395748570933,-0.051741400580546146,-0.050396321336219095
QDPR,0.2394617668629308,0.06231653492442496,-0.08356091341181318,-0.04088367900016352,0.10932218462582981,-0.029219684131758197,0.05368025089739802,0.05784589920098828,0.07653826687884197,0.06422020103103405,0.0579559320331326,0.2914398361376633,0.019179844613037622,0.08773228847979345,-0.04783707764406351,-0.014856076595234953,0.017650748136610647,0.12274474303727743,0.0182662004691649,0.016775106356630782,0.19084733787449326,-0.035249085931220885,0.15010152886491337,-0.06144021520532564,0.04335053363683451,0.14499251603163296
POMC,0.02194370398227375,0.04809869668611384,0.09876630075725971,0.05028564590976302,,0.006302152426238928,0.011096839088074597,-0.02238152352795859,0.07016240336836255,-0.03339753799241572,0.014510442008294891,0.07512578479588587,-0.03251414903778579,0.07134099758951885,0.058387414416961436,0.024552297141189925,0.03970125201003141,0.07647922190016304,0.06897465552842394,0.09789137819437067,-0.014437340537345775,0.006931413083775478,,0.1768832835798462,0.09078027459570412,0.002071214565423705
CCL18,,0.012599707992151108,-0.08500064883248369,,,,,,,,,0.16372647104664736,-0.009929825694680107,,,0.029361642334252504,,-0.02303293053966827,-0.008905482383940195,-0.015185910618042142,,0.010526267273942855,,,,
CCL17,,,,,,0.022925074795288426,,,,-0.011966115862221457,0.0658832014645821,,,-0.0011464205453091776,,,,,-0.004537925476504714,-0.0005579765794208816,0.004867980071500139,,,0.02547546675024996,,
VEGFD,,0.011421089108805559,0.044477771280470625,-0.008614379219890252,,-0.02288407021038308,0.14694863085852217,,-0.026202656834508502,0.007332179061661402,-0.012186925648725448,-0.022031701315378054,0.005135757651989246,-0.004042442717599252,,0.013758553034504696,0.008102488760130326,,,0.05666924073327896,-0.0644724004243829,,,,,
TNFSF13,,,0.10043745545411577,,,0.05995279250651016,,-0.01797477912823856,,,,,,,,,,,0.024425039533186144,0.04570896661082488,-0.045006490749411446,0.00913853062881083,,0.061646990800828916,0.06268921792115435,
WNT5A,-0.0649510955288793,-0.010114124080260635,0.0870089203867096,0.0466418917851298,0.06705015838673685,-0.03517794407630195,0.05260670822860604,0.06306759720473441,-0.02250749595250986,0.003172119686751463,-0.026052479561428275,0.01251197743420385,0.03922436772781347,0.0034758248614880642,0.012223869109242754,-0.04568591963413876,0.06534059516945964,-0.007117282507845471,-0.002267635491154145,0.06246358548647503,0.045740304367184986,0.12103855010698397,0.0983556722923977,0.1764642814398294,0.05988129152313477,0.022628362537809078
CXCL8,,-0.12119013581610638,-0.07681310146187258,-0.006229710832015358,-0.08224190929704381,0.055782023885048694,-0.12279012681114636,-0.0588027024733995,0.018535997753806092,0.06269253317287266,0.016869852429715587,0.11546107853629728,0.030104535073186067,-0.023681746911200317,,-0.12449742587844126,0.03281617947644517,-0.11506727151279851,-0.08995342814718392,-0.18009181489547985,-0.061493959729508885,-0.031553722458022695,-0.01909119592151678,-0.027096920590854747,-0.08351748268985462,-0.1650483113580987
GRN,0.2333097286853685,0.036450841166346566,0.25051113980933515,-0.010704033952294507,0.08527155773345341,0.02852168544309155,0.041947664332815764,0.08626830914023477,0.07672870317331879,0.0053351445356986955,0.03031639041183604,0.1987596938338884,-0.003391262900930059,0.07853441654492191,0.07766644884842545,0.06410876733040811,0.2050792927871405,-0.0009285388193133645,0.13757607895227944,0.048022680982944786,-0.21176474581000657,0.1197652688626712,0.07394566299942094,0.28136841580095645,0.18128674007240583,0.030942361316528458
MIA,0.04386728436304644,0.059814458793612704,-0.026630436196016384,0.05979991808112889,-0.03170949289506483,0.016433013411202797,0.08399351873070693,0.015008801847352163,-0.000955071133799571,-0.0022490923171400445,-0.017656678875285863,,0.04946848961264367,0.016303455608232775,0.07320861102602344,-0.15257844929707576,0.03188381366850328,0.026671254635503874,0.034016567081697494,0.05992637064397139,-0.08600011902642227,-0.01760841166602592,,0.06096276205422786,0.052872190819476465,
COL4A4,-0.017971812124969233,-0.04980152338973957,-0.04217909312818851,-0.025015720366270516,-0.016344989154269587,-0.022894445809352886,-0.018548606910750883,0.0744483759213053,-0.03991998661775098,0.0721893092952478,-0.002639995693262625,,,0.0848313016701015,,,-0.0026146563125038764,0.006160448999072295,-0.009066114212011875,0.08740921834599666,0.052677779158924784,0.08723761092510746,,0.01869703672719735,0.003909326272930779,
TAC1,-0.047427505488832046,0.11996768459932418,-0.03621675672885376,-0.03866736364229343,0.07290315281103948,-0.03723987966514347,-0.00326441040006804,-0.0637645628311297,-0.03672786709427613,-0.0025526588930138445,-0.01493994751815962,-0.15965335877375958,,-0.033439267361623524,,,,,,,,-0.058847864589288784,-0.04292278267185325,0.1088092405567859,0.042838468890931,0.008486137133621199
RARRES2,-0.2390573821473517,0.06517950593488823,-0.09324634147338096,0.023062485490925825,-0.07306970822807628,0.01299212615836153,-0.0018417833279881376,-0.007754272988290372,-0.011373200487936315,0.07758372267736355,0.02860254935703915,0.020392347931659244,0.0691031202300994,-0.0011744240606767276,-0.05110528333987142,-0.09481844752542141,-0.12959611285107528,-0.057809444959361314,-0.08583076205916917,-0.04024311155331849,0.008813262875333223,0.03359019855126316,0.08526313261875318,-0.07120768346711571,-0.1404081819425396,0.015142627372990524
FGF7,0.008381172925982337,-0.09203477605040626,,-0.03199019395327304,-0.05007859210987619,0.004856617147538067,0.004637728053349518,0.021572664818070422,0.041126575511272204,0.01047704900306616,0.024851482924801296,-0.03431441999318824,0.06650610757853113,0.06295087394843515,0.05488074319208682,-0.07999622215482831,0.09329353049562361,-0.026902592738111585,-0.028595612989212284,0.04612491896445003,0.033628176265439694,0.036026739052990635,-0.05736071836452378,-0.054978811595084505,0.1611619745435634,0.104887190021245
EFNA2,,,,,,,,,,,,,,,,,,,,-0.006651567919374511,,,,,,
HBEGF,0.031105207447100533,-0.018740859844728574,0.2387562289942633,0.028902474829765375,-0.000322013952754885,0.04838812518958903,-0.01578533113463989,0.12656326204853818,-0.05178983890285527,0.09684360396117767,0.0701824214389934,0.20253846623805222,0.046871807172947644,0.06466960238741586,0.0837032136984209,0.053761164783561556,0.07586164768659105,0.02343537647260571,0.025271263801837144,0.11731864302578915,0.023207322523484855,0.09715768396873335,0.02193476782421312,0.105206293351983,0.14215907021702362,0.01728947117237688
CSF3,,-0.04980148396172474,,,-0.03949770165869038,-0.01553133962425574,-0.04002658011131775,,-0.013814118756127045,,,,-0.029948989620942636,,,,,,-0.051407408021044036,-0.10082321704270426,,-0.018992705462113204,0.11783746767665898,-0.00606177164199745,0.02580006319089042,
PI3,,-0.05899728419892216,-0.04214937817590158,,-0.050874784171370216,0.038892406635568665,-0.08864023396458821,,-0.03252609127392262,,,,,,,0.02657517503881963,,,-0.13727653857637448,-0.13713455130767413,-0.10250236891643894,-0.04212619894323143,,-0.1174137385816617,-0.10826511336828443,
PCSK1N,-0.19658294554083972,0.0969026784065409,-0.04888351153326454,0.003127849822306907,0.0687488224597264,-0.03448646439424145,-0.022370239875989812,0.007315964214015862,0.004829153693666293,0.03448350235996109,-0.07083029670115053,-0.2766635249946688,0.003396240667996702,-0.0054679807921833,-0.06099672847900512,-0.014380334633713254,0.15567443945540063,0.027729096094850206,-0.04030690792729445,0.023655001012714134,0.06846768480692488,-0.11278351930970362,-0.10268299415357082,-0.16528006256617456,0.0652623694855074,-0.11774491143744668
NTS,,,,,,,0.05188666203320135,-0.023182301424870686,-0.02449487441002466,0.018094222957957137,0.10325361795619532,0.010822777975241189,,,,,,,-0.04935336538910162,-0.06416917314020079,,-0.062234650336540756,,-0.01237005079233335,,
SFRP1,0.03572990586409141,0.0803400396124291,-0.022587432393563457,-0.00871291023528187,,0.008264725142736235,-0.017136833084911617,0.15241651318441912,0.0781657320405352,0.02300550958489235,0.002472662321270398,0.12389858551390123,0.03362141699932011,0.007854734182219754,0.006118716241085752,-0.056380073662542676,0.095246237955285,0.09153891181312626,0.024240286585022548,0.10513108649224251,0.08392519899439847,0.02818601182729317,0.0787357480606183,0.16343253195728208,0.012799557887715144,0.01756958129017834
CXCL13,,,,-0.06519381004933451,-0.010436190439443988,,0.0010428531889166892,,,,,,0.04352829653621322,,,,,,0.017878943929218093,-0.05671067090914188,,0.02619538266247522,,,0.07376878113516211,
MICA,-0.022199707271246472,0.10295187531377074,0.16795174484598638,0.01579134252178424,-0.010625877701600586,-0.02894328372466289,-0.043361409573489676,0.033956868598362014,-0.051058135873311275,-0.0044881164498057095,0.034133689805871156,0.023225614477401006,0.02758245450461923,0.0031377215397831336,0.11688200994190587,0.08401351926464613,0.07696558118506977,0.022197082734464153,0.014735377553324398,0.10192682482497639,-0.017492644564409538,0.05884255736686238,0.03292481072811838,0.19935919342433417,0.08074544535877,0.00977467540250463
TG,-0.012151559247611493,0.035636912847384995,-0.06927164414247103,0.01981969754872963,,-0.00217286153294071,0.027501694416186273,0.0352814832268013,-0.05309411399732087,-0.0444347727533345,0.008522680644650431,,0.010259846806776413,-0.012601062540304048,0.03731333116463838,0.07101164842121661,0.0003175733937819297,0.029282156603946046,0.049491407536938925,0.05097891428247962,,-0.04692642106294133,,0.05603096071421402,0.0028810504175935696,
ADA,-0.03620095025550851,-0.01679112364260959,0.17569763062775876,-0.023683489486337743,-0.02848098322673835,0.06084438311976912,0.07636349450519624,0.0794230748511205,-0.025605310531060823,-0.035850233119159615,0.016557184174463464,0.15493436987303638,-0.03922393362213132,0.07844088775836136,0.015189549717406516,0.19716421157655376,0.1136689385350985,-0.06646882079829267,0.08312625198446971,0.1415872740556542,-0.05742796840940668,0.1571632818453212,0.07108366497973122,0.35730378202719265,0.08431390850441077,0.003557442679157186
LAMC3,0.035714877312113785,0.08534299359381146,0.35608861478422466,-0.043103888273973046,0.018287100516780383,0.06646971467467781,0.05180222138830224,0.10537872415722863,0.045048142421431576,-0.017278476453622293,0.02738124730215278,0.08448472021781937,0.03537464728017716,0.08754196606123443,0.20076621213066959,0.34327759443340244,0.20276789074476642,0.05312929877871539,0.12088194149236993,0.14325909860265415,-0.13577561012435252,0.2397635432595762,0.10396093641878243,0.3643990730205597,0.2680435278997086,0.05843020503557496
CCL7,,,-0.054067593322315595,,,-0.0037165777529793997,0.03610564485520724,,,,,,,,,,,,-0.029690017808272656,,,,,-0.009276790510574178,-0.07640626338617786,
NGF,,0.11636291263027944,0.08054393465516499,,,-0.0398670216523329,-0.03788083236420852,-0.025583863383697773,,,,-0.020279760941316102,0.03352403000392727,,,,-0.09833891022368547,-0.12274100491052065,-0.00012914116155140045,0.03470946348619626,,0.07720187131114528,,0.09537864471327634,0.06387757823188643,
TNFSF15,,-0.018416059737670652,,,,0.0007610853588644822,0.01496534293636528,0.041527285445288414,,,,,0.024890291397086754,,0.035630106049752,,-0.016109263356088747,0.026200758420335646,0.06638493118543785,,,-0.04186770430228188,,0.12414611257813578,0.041297282950636394,
HMGB1,0.0005545877309005324,0.1303749304264134,-0.024007076333792055,0.041069973586859744,0.107785079520887,0.00015031915925394363,0.0672020360371282,0.08247224347870205,0.06902894922085395,-0.025851828697696203,-0.03653519785612762,0.10029732217036849,0.05683024972991055,0.048925369105513,-0.01179665590782689,0.08589453894920406,0.0016524213024702553,0.18420537606818221,0.01077396927728399,-0.011434381311103178,0.07131915923240155,0.052541800937292694,0.04530169554707199,-0.1430969941612818,-0.002705832125728876,0.09935880437801438
ITGB3BP,0.06620312591623496,-0.08384060811924333,-0.005322393539150136,-0.025000106789308592,-0.09268660196742265,0.010206761051205014,0.0217744223632569,0.11442165081978307,-0.007329216172808222,0.015345281510656296,0.07128774978166151,0.011605529873964572,-0.0003433641501763242,0.015985319948991376,0.012886488813282849,0.045744309453730425,-0.02029477453311123,-0.014273137862740617,-0.019011282860081788,-0.029838137918209714,-0.07741055782497104,-0.0030429060101923974,-0.00023532480948528517,0.05046920241035246,-0.04602315616001833,-0.05448610661342525
AANAT,,0.01815181181272767,-0.013457774900928976,,,0.02337249479649968,-0.049008148648343686,,0.01210825136973689,0.020746226367868773,-0.05424598212365151,0.03357477862058046,,-0.015567057952538934,,-0.017473739541378118,,-0.010122506139472132,-0.04391373075295477,0.11264290305042707,-0.0985223242453175,,,-0.05020004269269326,0.048071480320738255,
RELN,0.005748268454745743,0.05322297264338905,-0.01880192238406875,-0.07850536096443492,0.015806917957744956,0.021894973488766005,0.023583003658742045,-0.049802405897659094,-0.04592616082991522,-0.05792668692407801,0.04448833563136722,-0.0469478888256564,,-0.01255425415845289,,,-0.01119745581043521,,,,-0.0914500296218343,0.03445085626539992,0.035021668330368474,,0.06945473599835197,0.034251335538130895
IL15,-0.050730239895719516,0.04055065152346669,0.08600164227623201,0.03362607682091289,,-0.04718719741924726,-0.056804905010402564,-0.026961741945727976,-0.0145797434121563,-0.024406910864767706,0.00041285629319764473,0.07634820055759532,0.025612976017523808,-0.0009742330289740298,-0.012665952387039006,0.009243027985003344,-0.039795197303587694,0.04762319127872492,0.07931992187680882,0.0657029259289881,0.039449701865965275,-0.033008473538038444,0.03213435570947008,0.1337373521099536,0.014145866760784703,
UTS2,,,,,,,,,-0.04056393083208688,,,,,,0.035563889950963934,-0.06422244784580473,,,-0.022966126639084868,,,,,,,
BSG,-0.18816269918283962,-0.03800983731236834,0.06695334907084288,-0.0037130664006695987,0.06479377389316696,0.0124673268349793,0.013718149641064457,0.023954115833178236,-0.017826910019896516,-0.017497293262615114,0.026912237606256658,-0.1546959240798616,-0.040139699669170734,-0.022934297467937407,-0.008046166653236307,-0.20069487107679296,0.12621435213857352,-0.0275364998415034,0.07401833366969993,0.046590167158438056,-0.21038682663971467,0.014264091575080589,0.15026986377971024,0.0892636363077037,0.06954364789310778,-0.0789277887197365
ADAMTS3,-0.1373889145881463,0.06171393365758763,0.046473099675680765,-0.01191098053152556,,-0.02311357483962536,0.02140195462826843,-0.03332212646857709,-0.0017241925134486643,-0.057453899362366105,0.019800140553715918,-0.03545771871952217,-0.0005588838396129109,0.03210982585796334,0.0870676125222034,0.1045583250123838,,0.0586998085741677,0.03422183290452774,0.1088645086194509,-0.073412696378086,0.036858372894518085,0.11320799137469292,0.11247013384103517,0.0008454244589393547,
CD34,-0.11158513739939911,0.10490084632630974,0.24707135852470197,0.06957740261231156,0.04538804159542696,0.0340880714315563,0.09002236201325958,0.06363538086380989,-0.02358477653779898,0.057250424822691326,0.005862059611830263,0.017607404602315045,0.034169086194861205,0.0632433479899495,0.16669908129759864,0.3505948615978368,0.26330292335422656,0.034924487195027706,0.06662598293884493,0.1430668143621646,-0.128608036297036,0.1996714241202139,0.005574788323393511,0.3413028507713054,0.1583186099150846,0.027814962431013897
CCL23,,,,,,,,,0.017703368327850477,,,,,,0.00300551726892383,,,,,,,,,,,
PLAT,-0.08807764476202075,0.08123603098266165,0.20707835447705406,0.03808954277186528,0.013474392973377328,0.010609408594148065,0.014735735144543089,0.07846853190812653,-0.030151333806144435,0.0017411241939502915,0.07053768174891976,0.06739469550209001,-0.00807407125935592,0.06431212314495886,0.1682782602333127,0.1625143386159734,0.2353611737223714,-0.07936337315702842,0.06658597876126136,0.09488279857976445,-0.13686067171266772,0.037135274480511196,0.03209720814329711,0.27960329170571635,0.11418945130455624,0.10582118384645622
NTF3,,,,,,,,,,,0.08471710866924882,,-0.01726248283373496,,,,,,-0.0019379736091897563,0.0608986052100576,,-0.005712466784625307,,,,
LTA,,,,0.03513053232267018,,0.0027259045775268175,,,,0.014743290192751592,,,,0.07020160106152115,,,,,,,,,,-0.010803733449624578,,
CKLF,0.03248597044942471,0.04453804699669735,0.12468246434776213,0.053135687429397616,0.07675013135711971,0.025222690079627203,0.008685150817628867,0.1129804486079874,0.02902059434772271,0.07975980289752838,0.015065970741693384,0.13615340431550832,-0.008451353884267503,0.0722826767601533,0.0034517688786758157,0.13132615767806263,0.02800796942596458,0.084592830272925,0.11906619380671356,0.12958614717663475,0.04745070489188652,0.06076004849340873,0.07977317624902844,-0.002109065635380314,0.03509112805735539,0.03675328600230536
APELA,,,,,,,,,,,,,0.01872776662459909,,,,,,,,,,,,,
CD24,0.06970669078882666,-0.03464920500616789,0.023822995943607022,0.06971443107625225,-0.003415927118909986,0.00704413707536881,-0.005893422755338999,0.04665693768541561,0.014371783399876293,0.05907911053735215,0.09410263262403017,0.1158805092558715,0.004334528159673803,0.055008118470220566,0.07039970930764333,-0.013682198570002852,-0.0892183826692806,-0.026621636253311914,0.0026964443892148918,0.05300817294021915,0.04162490804195483,-0.020633596958177392,0.0195513996079931,-0.14627298043193263,-0.014710126251030435,-0.060703045782253225
HSP90AA1,0.12216913293907015,0.0408946957933835,-0.13012495202347116,0.02326271107632734,-0.030319530628889837,-0.02801996999604288,-0.039457204431054445,-0.059741445487387586,0.022317510896808924,0.13099981633863647,-0.021660083183158096,-0.26273763032747416,0.01800702557031676,-0.03972266363535147,0.05915779620383977,-0.05735120580093253,0.015273035414236387,0.04637207327514763,-0.15531109212341268,-0.16031171124677898,0.045754861830356014,-0.054751192287946795,-0.0275796045767614,-0.2201464878798543,-0.04166987421589589,0.017500170476073273
BMP4,-0.02665456898433092,0.04639601693963245,0.17702900826529092,-0.022719556792381475,0.03624841061914417,0.026512037181491657,0.0952288580120179,0.03252097292069173,-0.02687320762965591,-0.030703851821560504,0.04588560508544635,0.06202503646844267,0.1042007378394615,0.046759943185073934,0.0800457741447063,0.2369197332462648,-0.05070345388586604,-0.022095295854642632,0.11456393040854651,0.043327795496324074,-0.03178793195391141,0.10765539095287958,,0.26460028270689695,0.060291977858185214,
SCGB3A1,,,0.0626488173256902,,0.0077522421314501905,,-0.04772582142986636,0.06790969303219391,,,-0.021509436714516637,0.02406634013419471,-0.04401763177580672,0.0011586401755438304,-0.0779033791594077,0.1818352197533637,-0.032292184767964575,,0.00331409780926459,0.008265147956714224,,-0.024501199547081524,,0.18218858120551568,0.12670214967957608,
IGFBP4,-0.06649658655341903,0.10738995824669077,0.3259247822554106,0.04821454622824658,0.1290626446338639,0.09631586478444608,0.03589208641277862,0.08414707923961746,-0.004407999814601939,0.09622795384077504,0.0328992753344827,0.20703843389352658,0.014993632942133121,0.017287090852276372,0.1668042822331796,0.40681485166229037,0.24005736776933234,0.0454505551665863,0.16916165889187765,0.09459775756673634,-0.16547153294775976,0.2059139646285025,0.05832053629446079,0.46881748453921707,0.2470432628817759,0.06961769613218087
RSPO4,,0.03382068329770456,,0.05073070439085854,,0.028157888215422543,0.007931316317453392,,,-0.03942568434889872,0.04561651442660663,,,0.04584492223795104,,,-0.020493220741848995,,,,,0.002123930484830434,,-0.019499837416172203,0.0822656677935307,
LEFTY2,-0.006899946013108007,-0.0169565316461327,0.13188355767639906,-0.03164633946408353,0.03953282599551829,0.0935201583259676,0.016348628974452127,0.11614061364815502,-0.018291180292409833,-0.004976569410282772,-0.0005476356723065042,0.06552991841458242,0.023953718792901056,0.07002959785968572,0.110500021334537,0.0740641244285543,,0.02612068304734981,-0.004216529404777827,0.032907796049647886,-0.19257160774873708,0.006473969222009737,0.005611372069434636,0.15147405071498427,0.10456877700629796,
PF4,,,0.036382602341965,-0.041829229526031686,,-0.03386780526706286,,,,,,,,,,,,,,-0.028359048063357404,,,,0.04387026853858893,0.05316421355694801,
ANGPTL2,0.08924431795684606,0.03520689862224871,0.21153986110724096,0.04994519881589716,-0.01679773528675385,0.009498799813347041,0.09878563531625502,0.17217928319195924,0.005881936321367184,0.04846240648556665,0.07168208925874456,0.2009169468058781,-0.040424963413802605,0.004187888676401951,0.12650630205088711,0.0037052847741168614,0.05021307213057863,0.15918040898660213,0.14305163136307245,0.10540844001986706,0.0422202998801444,0.05965933434578341,0.10654350798025218,0.2957169050678662,0.13564887179621196,0.053070277212533934
LRIG2,-0.023943671894387755,0.025908703047733288,-0.014157299033251846,0.0273871213304068,0.08111548971816301,-0.004650732804492131,0.00726068435446623,0.026271892949824637,-0.08294014692779328,-0.017577500990623843,0.0038058677632339627,0.011507055231558717,0.048181213889243,0.08371782513294915,0.12558488067441884,-0.060200531544440265,0.0608230397150944,-0.09597876234985163,0.011043375480981225,0.10802910352197789,-0.007874131920940653,0.04018304620284554,0.04682599957733906,0.08345722866363564,0.012351572650689717,0.0311542835106498
ICOSLG,0.09052940600784823,-0.09102940822428664,0.10902725938239642,0.013392684808833905,-0.01931255646179468,0.006134841059224259,-0.00799874095619676,0.08789410337315345,0.05541332950745874,0.00203613526760828,0.05629435165886271,0.19587047589301013,0.03244209716094903,0.10845204502091182,0.17267585342743494,0.09254501900310247,0.09479192913108363,0.07037970737286331,0.09046234589209366,0.10494450930887793,-0.0037358893277807813,-0.0038695288344996527,0.004430731575888806,0.10750149924133022,0.11590847141983074,0.03971554701614508
WIF1,,0.14189965033533852,-0.00024579254168342234,,-0.042209878039989476,,0.01228194328476179,-0.14926036865322975,-0.02513395643615181,-0.03263823452632403,0.040781125503615,-0.19449335730600523,,0.007052531103444341,,,,,,,,0.023034169624909204,-0.11465391846179022,,-0.01826390211088153,-0.07865822396514772
NPPC,-0.09082105800341214,-0.05442087135113243,-0.04912912284964603,,0.010125556019599224,0.006435628459558879,-0.013976981237743945,-0.02222575072080455,0.0720392932007893,-0.019714951663289133,-0.01758038910838342,-0.11989479612687232,,-0.012698592317732812,-0.05205776941760281,-0.13331765595726688,-0.030774957669484737,-0.05217585327012244,0.009672060209648382,0.04493189806275504,-0.05294452257385192,0.010297328699375725,-0.012793597403452395,,0.003753331576649104,-0.0681151930665412
LYZ,0.15612061190149207,0.0246507603442494,0.1917573074536328,0.01442937001049624,0.02087911344923856,0.02293391621910448,-0.03338665769707214,0.05601651567482172,0.031468518700743936,-0.003255039390590469,0.003357567737554864,0.22837614803217512,-0.006795668242912954,0.014738167275764793,0.05341689239895367,-0.016671605444306105,0.09080382646200119,-0.05003347307234031,0.07679337087617463,0.0875931725332938,-0.042470858448949496,0.009433822291288781,0.023754013968743003,0.1624665588627443,0.017780967038501988,-0.009510737137207818
EREG,,,,,-0.03127601869809678,,0.03573364186808662,,,,,0.031121439288767445,0.05660570851579803,,,,,,0.019452666303204223,0.0028604143430678306,,0.05076792718267285,,-0.017693373953655372,0.11980825887248651,
SPTAN1,-0.13439186578764917,0.08468890045797181,0.0675554934264572,0.0035708073352910263,0.024462771532188038,-0.07247737219116628,0.03197353325132106,-0.023158064271909286,-0.05455677399825454,-0.007521066806555148,0.019502928457841653,-0.2925679960956462,0.08656006671938238,0.023743865497569527,0.02997681316109594,0.08576081875400199,0.016746380529736468,-0.1327180192879593,-0.026510205985878874,0.03811409123489206,-0.013739709674297084,-0.0491786916133876,-0.05700028217373089,-0.006494960582507717,0.10691143773970634,-0.04212830667407601
PTH2,,,,,,,,,,,,,,,,,,,,,,0.03257071052791026,,,,
LIPC,-0.05504350080948613,-0.00288401254936501,-0.04851310119362892,0.044221935250799004,,-0.01637172030933556,0.015299644495020344,-0.027005694868309175,0.0316615804485954,0.0493925863115845,,0.017071547692655623,0.011920744030923356,0.06483247899490141,0.017186221761329196,0.03171083209997401,0.0484911666351265,-0.05008134350388062,,,-0.06160055903123771,,,-0.005202565062474815,-0.032819105502874375,
COL8A1,0.05927268988634985,-0.011774335352122248,0.21332758990143796,0.03263418068761663,0.09120835679956212,0.04611837416176179,0.0714936183785601,0.07599001949820504,-0.02713016133716594,-0.028113456845671833,0.013862842052432423,0.12306053419413177,0.04997084178788725,0.050098724536545854,0.04040921643453143,0.03667470208864141,0.0856443281638975,0.0695081956269689,0.02871905800670799,0.04369855263087422,-0.13683805789044498,0.042336138792721294,0.06340932024977486,0.12754837836530808,0.01710448860136387,
GSTM2,-0.0492225464110347,-0.010262710147557558,-0.004934406700683595,-0.01902829716805583,-0.04965809275475128,0.05719411576582397,-0.047821816297227475,-0.010100319435154576,0.036186524726490546,-0.029941185174567217,0.00817960086631891,0.06409926657024556,-0.01085163169389782,0.043052459769619064,0.008682331225893234,-0.1300847410676578,0.12019418969968032,0.003641170020103033,0.02951029349656322,0.047060524547739346,0.057558250100414585,0.0008094761545341759,0.021048441502847452,-0.024286327627908874,0.03587652527397656,
IL4,,,,,,,,,,,,,,,,-0.0359381873550443,,,,,,,,,,
SPX,0.08696340659936226,0.1535653598625525,-0.0004319194687321238,0.054036346243940755,,0.029434155183827266,0.023592195587883422,-0.04638996421042715,0.018876633494502117,-0.037517468357517784,0.016626749047956368,-0.062341668116935624,,-0.02573597255650505,0.00876419132083221,,,0.04152755985487496,0.04915131851802404,-0.009700097006240038,0.08648210131458164,-0.051344792080506185,-0.009370168364251183,-0.09871806083179334,0.05699365068225781,0.0563354617496318
MFGE8,0.00738531787269301,-0.023752025621465694,0.2318806950336001,0.002258834604861696,0.048095524718862845,0.02376156843623942,0.08126169946180488,0.036296107106893565,0.032616655844155094,0.00462684371384606,0.04971497541127787,-0.07903851490413345,-0.024381703227503847,0.10340722758644307,0.05868760283525716,0.1885855889238798,0.171700298170862,0.048403628403391324,0.0639766128797732,0.0896865308186003,-0.20016044481951675,0.14624871961599326,0.028004023568868316,0.4279919970949841,0.10500425364409458,-0.09468177856399758
TGFA,0.1347797483579617,-0.11440682211188757,-0.009627800389411483,-0.029215730181179136,0.051413879558231936,0.05785525857612906,0.07324692572586433,0.04330035628959517,0.009296968577182077,-0.03783600531207007,0.04434138255832157,0.13069217704455946,0.01062223436148636,0.10604051693344807,0.04212971041262996,-0.09200226207809117,-0.01788118962815331,0.038948104812957476,0.05888422460565023,0.06272999965563279,0.14129575222523602,0.06918802006521141,0.10061048704929382,0.09540400336181329,0.03443513559241217,0.13655906401945106
SLIT2,0.10015740085459983,0.06086277599095631,0.14194548638003923,0.0297656458860981,0.0021186631565014028,-0.010728649555621398,0.00882716502025066,0.038977888755544074,0.01564142494693953,-0.026620419995961583,0.034675967279008964,-0.15217641576419122,-0.034049114747328496,-0.0191094917073603,0.07950129569645635,-0.00803856828465457,0.1467224237766303,0.0805060423997892,0.03937622410835917,0.12812207308276918,0.029320756414826458,-0.005754977289224339,0.07109481734376834,0.0949723335147446,0.00021631568530492613,-0.166036557842131
PLTP,-0.11556078563663805,-0.010704576970979832,0.08249891785907919,0.02546330381796312,0.003975297976809355,0.00046520552391707764,0.007663046514614379,0.0474004465451479,-0.05429511512845162,0.02884025803032036,0.06614294706981498,0.2893954765036017,-0.011428838979347267,-0.0498128758113316,-0.020471669407843496,-0.05464961931520336,0.11561284796918729,-0.1373676868087262,0.11103939684037266,0.07238623411826813,-0.2434417802472508,0.18074419429847444,0.1387947218107591,0.08807453468919473,0.03999773483031911,0.09121141326431126
APOD,0.27746662836577457,0.16228118663273064,0.006442974246651875,0.012698233863605508,0.06543234099877332,-0.007505957250154199,0.06307344099234012,0.10204339501095427,0.08370327596096522,0.01974496251853837,-0.0713360228280903,0.25598823922996594,0.013163080460163819,0.10118518704341506,-0.05514652022901601,-0.008919867191241288,0.07974722882141921,0.11908706480393805,0.13571126279296764,0.11664173654755558,0.2806237773598853,0.12663957283729918,0.11490510309592078,-0.11810942103694078,0.1266383505801012,0.22420629212423335
B2M,0.01709458843683512,0.0986335381432174,0.20958617284908254,-0.002200103829814302,0.09058105881551784,0.1271310967582038,-0.0005390802217993018,0.16810582144655467,-0.00977737504724687,0.0909362527113301,0.09577581513974719,0.38260416554801135,-0.003067117626965817,0.010985815870054285,0.2781303332516797,0.12809334760960378,0.31956177231744554,0.02007476311766028,0.14283526495103524,0.18140341540563445,-0.18686391133356195,0.22544230628696288,0.0660838809436023,0.3457813159572753,0.15700956339642774,0.08910932301058097
OMG,0.1597433911883668,0.1413944245590301,-0.034296740627911555,0.021138851382974617,0.12088636448221134,0.026642803066667643,0.09187345353242807,-0.03618863463535167,0.12789620954155143,0.024997115720301145,-0.03187511904940733,0.13099621689777574,0.04041291492102037,0.11298685145051524,-0.004592722161311438,0.06919875155209373,0.07718264057010331,0.14598344257459897,0.11199601812241283,0.16747565887434693,0.18186026149384116,0.02185767606109628,0.021395522593070433,-0.009853151023318131,0.10534874278635546,0.18105467170176712
CXCL3,-0.03870454266782657,-0.0007553753586829562,-0.0292638427329301,-0.023327176243544284,-0.07436873438212291,-0.01217470748528155,-0.017762996920733097,,-0.024488007927361184,0.00530280948414517,0.01920521381139388,0.006766819321908579,0.017042762791082987,-0.04740898203952985,-0.05626253503326898,-0.05974842359815691,,,-0.0519286590988694,0.01375396242446983,-0.009365506984384335,0.014800899265251376,-0.09774173223820659,0.013705358546278495,-0.0166173180115103,
CXCL10,-0.10260639423727362,-0.014299835678458184,-0.005818592378376651,-0.003661341803377471,,0.028289739852912204,0.011682978654342318,-0.021418548450929494,0.0053954502249881145,0.065799047570873,0.029698807311763418,0.0321254085309179,0.0785710452658318,-0.018881645332419695,0.047091705637285375,-0.004716476542888817,-0.030770377355302296,0.009060645581161254,0.017333942283077542,-0.004958321932101389,-0.017167418466003552,0.04443945663885161,,0.1599309852531886,0.08101164232350955,
RSPO3,,,0.027423369233511647,,-0.03949770289066774,-0.0007236296545114818,0.013979576338415107,-0.050600581272352126,-0.013375215259759973,-0.038417799326284495,0.05454820030169549,-0.12679263543403807,,0.017826236599967456,,,,,0.002152958687713579,0.04349995932088459,,-0.005716203769505049,0.026092726019627463,-0.01322769561734562,0.05876980188315264,-0.05431319982218711
CORT,-0.07316630350418189,-0.03929754092137367,0.10491851866743153,-0.004135112457329562,0.12700559794358543,-0.03415642990391989,-0.014180066422097187,-0.01110523024114983,-0.07305734674493658,0.00034342382100171635,0.0006150839045367811,0.010899358652682043,,0.050510807919027595,,,,,0.011654243815633274,0.050669216640698775,,-0.050540953027770535,-0.03100234060626353,,,-0.02219380229193499
NCAN,-0.0015778141100014967,0.10554178706366527,0.05635523559845546,0.09467032155940289,0.09136295079663702,0.0026141883389553915,0.07066957534900777,0.041628978879120565,-0.02667235106553731,-0.05426538169103914,-0.0526346981825215,-0.12940280466649096,,0.06637572598663426,0.026157597767780705,0.03602033485192113,0.09592898211903789,-0.00901455974238803,0.09626214605565525,0.0978610211664934,-0.20119082587558865,-0.045977764618042816,-0.048112362931415235,-0.04883616236564541,0.076805656230943,-0.028822509785774792
PRG4,,-0.007533637339329809,-0.005870530287104564,,0.037395685409667645,0.06310099122447335,0.03395847648755961,,-0.02725326120812854,0.06417620159810987,,,,0.00686724375314828,,,,,0.036549182039102,-0.019265244871810437,,0.19658175742921039,,-0.01895504569774795,0.0034671548387214955,
ZG16B,,,0.05099453747987018,-0.034482638272052134,,0.024132657614629387,,,0.019396264422527856,0.026784664199101794,,,0.027889633662163835,,,,,-0.020347831984601956,,,,,,0.06618415700280955,0.12831354071793183,
TGM2,0.026120826237843425,0.06601947163096929,0.21403535179718505,-0.018509147165822023,0.10367990413936155,0.013408136121614038,0.008872028018085093,0.0045871031044870374,0.01898148500885915,0.04896930939768931,0.031763214206495353,0.11678593408262972,0.007547210679558001,0.07249240329841664,0.06836117615226482,-0.016369343027363085,0.13903534228355607,0.04599429534475581,0.1272960733473245,0.05218466649097601,-0.05709921192600616,0.18200442394936306,0.032153251788046046,0.21870270848761195,0.17596383630458523,0.060127235076582734
VEGFC,0.10426824326508481,-0.03848197101439305,0.062427309470905565,0.047031963072522984,-0.01827303700237786,-0.017422064431025435,0.04710357444740846,-0.030454811205352768,0.05109538817200485,-0.017132588679089115,0.0690469442719079,0.08229669694889069,-0.01605569603752857,-0.009464607970257208,0.031150378804500774,0.017717357231757252,0.148512806332302,-0.002276793931084315,0.05141621329992181,0.06461037506547611,-0.029717741069650853,0.08564594305578495,,0.19816413480100542,0.0183668720852791,
WNT6,,-0.048805391175882305,0.02545167438043866,-0.01299846009413063,-0.0190558512672669,-0.026368812487397704,0.1314192064538284,0.02702573095613376,-0.042640909386827776,0.004183522812922685,,,0.02528953065634885,-0.002422552366169479,,-0.015105063394831211,,0.004632522486496868,0.07450088598094946,0.04446312892958944,,0.0821849474444662,,0.04896005697564425,0.06610339601551311,
NRG4,,0.0445177714214434,-0.04979815162979729,,-0.029605651532724233,0.019170088337103305,-0.02234354165105411,-0.028664594797648834,-0.028773469192419528,-0.016355871092100783,-0.003925565444001655,-0.08698136354545408,,-0.003802610033951068,,,0.010816445132468095,,,,0.04965274144771499,-0.07697030687804159,,-0.08079593536802353,-0.05755131854010094,
PMCH,,,0.06970169377499484,,,-0.06637676234652645,,,,-0.014123301220087215,,,,,,,,,0.11785081546890126,0.05523953471646931,,0.16686609305183892,,0.18814477106512484,0.06027838957479597,
COL9A1,-0.09053695259467219,0.006305293766893962,0.17526578210233412,-0.050111693599912736,-0.011392379817805887,0.021834332974906556,-0.01940228543661714,0.13011473403201473,0.04182790238933022,-0.0024047748788829674,0.04474836885538313,-0.06726788451693567,,0.0024787433847935367,0.09194730766994767,0.07701193908671132,0.24659360310452064,0.03241002202780086,0.09157037155920761,0.14624813549481638,-0.05004644378572074,0.033023321095109116,,0.01748966560960308,0.07900429471833678,-0.07419445200365464
GDF11,-0.02712791634074151,-0.008957249298357358,0.13803411514272024,-0.09383947185037048,-0.003429871392231433,0.007880344602500904,-0.007615662699131661,0.10620180672451954,-0.0680442785517159,0.02132796933133305,0.060065228993537445,-0.009217488527185184,-0.042261119604012486,0.05406555905937212,-0.004408071457637437,0.040751009226185235,0.018136525741507935,0.061379113464556594,0.05673482935109713,-0.03648306397224858,-0.051946619725971456,0.08290782905841369,0.05783101356784672,0.15954422280325609,0.008771441648860864,0.05836429182135502
RAET1E,,,,,,,,,,,,,,,,,,,,,,,,0.013336195646113947,,
IL24,,,,,,,,,,,,,0.010310935574388584,,,,,,-0.025908678169997208,-0.0475065422598376,,,,,0.014581889274998481,
SORBS1,0.11294072992862401,0.1181957927732268,0.03776174544010639,-0.007932422234699477,-0.032313341215608075,-0.0231259974581618,0.04305429510404433,0.002228054579990667,0.024374628365678302,0.019683355425670672,-0.005088752725020572,0.0294011689841373,0.07635012281231027,0.0649199289059881,-0.02513934493764167,0.17799343567571724,-0.041665626459289805,-0.030026528759107857,-0.029944029453293726,0.06019211337660135,-0.02249125887766719,-0.021477702987214995,-0.08336969042800559,-0.12427781031240928,0.021905228194165058,0.09090100223941144
DLL1,0.06522264478099461,0.06381887191069455,0.12310334084245088,-0.01954728293680407,0.006536141828455748,-0.029630507568308415,0.0754261723656799,0.09439094766923851,0.060860623089578604,5.44451670262488e-05,0.011329662365989335,0.04520049862915585,0.06410067980090091,0.1323848051650197,0.07607581278610329,0.14020690256620857,0.05116813224788198,0.07398795931758849,0.07241489325525555,0.14673896181541687,0.013290709619081447,0.046506213619612935,-0.009986710489634686,0.23269763661608875,0.10937470646718159,0.03358332834215897
TLN1,0.03404670327046787,-0.004235775050439953,0.21447496557760395,0.04596638025577133,0.019171346387382944,0.002946203578262381,-0.015516928447172219,0.1378147923001715,0.06362640085873617,0.0011664474099081167,0.016987951552153952,0.26707385490835406,0.05783728434661037,0.07386279607200431,0.13397169276181006,0.09909554046854856,0.18114375102793054,-0.055547426812023154,0.019259399794388524,0.004346668563058086,-0.037395688386542926,0.033702999144332585,0.05373385457638788,0.182283020001015,0.08401327340221673,0.06316671919602262
COL2A1,0.09886337952043112,0.07254361492056481,0.14740442982950538,,,,-0.021037071393159617,-0.006002329760340449,-0.060509419036227335,,,,,0.018028558341751336,,,,,0.05177490563560753,0.034080875402834075,,0.01628167975747383,,0.07884558503278882,-0.03881517051853587,
SHH,,,,,,-0.0028249533186596467,-0.052054187364649236,-0.00545971387412922,-0.03128054305323059,0.026520339177550718,0.0033703795608803575,,,0.021465251958040117,0.10161929554614635,-0.009923707999959949,,,-0.04086449424262443,-0.017049984148656053,-0.08390207291803091,0.02347466133910205,,-0.034801852001568614,0.06998255229065214,
PON2,-0.13947183305468006,0.04775330043735573,0.09297919007596907,-0.07643902805893467,0.10922639529034572,-0.019381728516080596,0.04358810629509526,-0.008994550978346307,0.00494717520752259,-0.0480956382567058,0.003425322624248153,0.13387866003026624,0.10125734366019072,0.03483980720976281,0.1455351040611355,0.22910717851391826,-0.014965627440461603,0.038632145000520056,0.12753689510709476,0.16718326507696513,-0.08417840474467315,-0.019232837295755496,0.07380423466271256,-0.1582789157874941,0.030326404376954726,-0.032721955524425375
ICAM5,,0.15005928915914696,0.012439422461514686,-0.03188643367908631,0.048398934888483146,0.010909262507938592,0.022099981844738565,-0.03424766258663839,-0.04539942927116259,-0.03273954297085978,-0.04422551860499337,-0.1157159437404999,0.04310610142369525,-0.03378323990683909,,,,,-0.003655235716407182,0.021888314806701063,,-0.030573730230829394,-0.01483308783805001,0.06884978305157177,0.10625965009012248,-0.027943212140060725
HPX,0.0010821955657110043,-0.04820094189103902,-0.04520277091678706,,-0.03949771327448149,0.014028923889043664,-0.03540036234846448,0.0152626177646268,-0.002019733227424023,0.03425871528595815,-0.04505837870778537,,0.014982007541454926,0.02388683303137619,-0.021414705694030686,0.008533175306558201,-0.06345371609614836,0.08006412156483976,0.0858416994948745,0.16052766818155362,-0.012042888569078281,0.021609727293413854,,0.01904423099422859,-0.050440748985923385,
SFRP2,,0.10772348256960007,0.010237998762541929,,,0.024130568846794258,,-0.059096825206534385,0.02397743430571099,0.04627560616833169,0.0023117169176878538,0.158629522079517,0.034892359643114844,0.011345820180026485,-0.0226874518035894,0.002203012480079201,,-0.021594480539672667,0.07601757594833491,0.08303926440863127,0.03609113375986099,0.13101880140212138,0.08591183749188849,0.21862653971080712,0.10038125881348946,0.04453215982325988
CFC1,,,,,,,,0.03532983753118183,,0.017098896372822806,,-0.07709873662789053,,,,,,,,,,,,,0.005988563355073891,
CD70,,,0.11561571178850392,,,0.009638607096730195,,,,-0.013248901375496844,,,-0.033636152829089196,,,,0.0432898683580249,,0.008887078161608324,0.011123698199151731,,0.014323526482891546,,-0.010246339349081963,-0.026833485798862168,
HP,0.1356657533548515,0.0736608116440308,-0.020337422109205004,,0.060351402885183106,0.01267329645360322,-0.021699262818904635,,-0.055927894220063064,0.06704625843352087,0.019418671108039343,0.13233842629299503,,0.010220124147007615,-0.08450544087786344,0.024829393610051733,0.08508069353693187,0.06053476181664176,0.12123359719360459,0.08860157057122853,-0.11267935088876825,0.07644230078778987,,0.0153485128327216,0.013915026532771444,
CXCL2,0.08170475487027136,-0.029752277708587908,-0.03706068262385581,-0.007311092247931911,0.03254948158648659,0.027847783661714826,-0.048251294859776674,0.022907883340918585,-0.03112135591525249,0.06226034896446686,-0.03334578018414196,0.07918571521006214,0.009761418938218294,0.07048491167402833,-0.030177641543570288,-0.06411050547223388,0.010769924619843734,,-0.027147728482436437,0.00930735417658663,-0.021244635136228828,0.018069252176935665,-0.10424981077534877,0.0488381449644341,-0.024586602635613193,-0.026648457981218315
NPPB,,,0.0015401884952246981,,-0.055067426848525704,-0.0035414848795300704,,,,-0.02382628238744386,,,,0.07547342231283435,,,,,-0.013261532110714753,0.024707304051186776,,0.04062194502814974,,-0.09392897295609873,,
CCK,-0.10158221853270342,0.17851264924093654,-0.05618489240185369,0.00015728029840017912,0.09247860366345888,-0.011609000056621395,0.04466554793858158,-0.17687959644653514,-0.023977520566132577,-0.0489042409830403,-0.04368207229441317,-0.328353011107691,,0.03343677807416652,-0.024578120317547924,,,-0.0718311341081259,0.08896213083706939,0.02516862148871311,0.018843261533612272,-0.047907489850850526,-0.03755852618549804,0.07033157345324759,0.07345280750485839,-0.11677321924044808
SEMA6A,-0.021292743837700707,-0.009797688931114941,-0.05531917828292319,0.015736610809767092,0.04722815422580768,-0.0008863177225513957,0.023639088582001984,0.09397014910758666,-0.06722138685616301,0.022896458467102587,0.04116767045131964,0.1532470167578051,0.013322384689870863,0.01393329519478502,-0.06608659679752897,0.02900134886938813,0.00015790813122472765,0.017274900823418118,0.01180440514172737,0.0999545595255415,0.0782826496168477,0.002520777428138176,0.1448925442750276,-0.1333480739118418,0.025595922368706524,0.12294637282484666
IRAK4,-0.007235323867658029,0.009188119600398137,0.038914879096141115,-0.03486639073127091,0.00690115558582657,-0.0015477490322957578,0.03069842561962811,0.1283662591097325,0.054572788586089944,0.02539879327657104,-0.005762877505356897,0.07396702292194987,0.0743232262393563,0.09254196118662363,0.08129873519788522,0.024693693332262068,-0.014351359995986282,0.012180420875373216,0.0089214632085424,0.02102695160504528,-0.13067429882667866,0.04056793581940256,0.08008486339841668,0.1770092004100973,-0.0022170474607270396,0.010370625402676317
GSTP1,-0.1132612063836251,0.0124330220789683,0.0137769840129757,0.015580298347880108,0.05585466840244826,-0.014551021533100712,-0.000697831682861845,0.06067487992322334,-0.001215694992182673,0.04698864539252086,0.021232383053767952,0.27687265566441527,-0.04069175795568465,0.011460139530993533,-0.12120431275277284,-0.023571309649053372,0.040023844090220896,0.09396345307963197,0.008816089495642424,0.1032835148156762,0.10511426779585299,0.03522768319063999,0.08115976864056909,-0.06860760507089654,0.013093398665360178,0.07007909936466768
VCAM1,-0.0219595936289088,-0.03241825207609578,0.07138624119309026,0.039642457710434224,-0.01963329508480294,-0.035915141087347766,-0.02343037686186349,0.09218204280820749,-0.005648071526944118,0.0007227341391867465,0.04385088308206874,0.18511852823855762,0.03116994262625087,0.04006497894085404,0.11768859145168237,0.031984363826861525,0.13924244829772553,0.006551744190906761,0.023476876875047018,0.002626787878095188,-0.05478588552282989,0.07161655502542197,-0.012902898845835533,0.11719960727098605,-0.042279541558069476,0.11260149622161826
NXPH3,-0.0008734966054498213,-0.015977270641661812,0.043283857345553164,-0.03006597812831623,0.023434591570124376,0.03930910449422256,-0.01921399535163296,0.06977958882636022,0.07401209810590072,0.013605804907265972,-0.0275420992791542,-0.026019288716312705,-0.034905156142183515,0.026938924877305686,0.022947428062830115,0.021745974879724503,0.040905506161669616,0.009618173819196829,0.061937873825266734,0.08628846184647825,-0.07856521741788075,0.029137742248380335,0.031275725988002726,0.049362335230931725,0.06542875379899442,0.0010765676345160019
MTMR4,-0.042875476317792656,-0.02000840454466247,-0.0016927267821522157,0.06792112814521535,0.023931212385488843,-0.017922507945968166,-0.021927912545872418,0.06622268767986245,0.02900885422806837,0.05112094223192021,0.03981593574429933,-0.026494984540703505,0.051275473378296375,0.03686130524323232,0.13938263110941868,-0.18881949248855534,0.09001485133028758,-0.010803668858442798,0.03982603450775068,0.06720648518001485,-0.049839358376724395,-0.026624898461498094,0.11738331714974878,0.06267689409973128,0.10219302400225676,-0.011145104354337748
LAMC2,,0.0394717378827294,0.029707815330140254,,,0.04524313825210384,,0.026963624927239603,,0.10214576907038747,,,0.03680086433361911,,,,0.04617963675130707,,0.07466592698004844,-0.025565346536156212,0.006686411537105602,-0.04758614346770244,,0.05296367801105968,-0.0247772444604961,
IL10,0.057677118641924485,0.042297711274356276,0.017180513590231705,0.04229057031257246,-0.04121713843209527,0.011086378471572296,0.018690863825405746,,0.0204611991386753,0.10711348182159396,,0.16129106859302442,0.020945422392396645,0.015581767643700785,-0.039956050191115845,0.0608424102375834,0.09834666297999568,0.02713604338928023,-0.007695868374073536,0.019961207239196192,-0.08137341788563689,0.07797852719328163,,0.08341891768162428,0.05453725568314158,
SEMA4D,0.16358696194942665,0.05713415562263007,0.100441460080653,-0.0002554138941208712,0.05204281169115788,-0.05530648026320408,-0.02879668250520839,0.0906464152317125,0.11288165061694269,-0.013634084762983204,0.03881057170946306,0.17809058984926024,-0.04262545950606326,0.1579662039025427,0.0035394126150804475,0.010361456698600615,0.017456490011661486,0.11071112706366684,0.014824371296812147,0.167746792510831,0.1808986421168051,-0.06254628689177698,0.1475098752942357,0.07439604664345655,0.07233060488775174,0.21924188580508436
TRH,0.04145613945086436,0.08183639877171682,0.004739511460019242,,0.040629276426043665,0.03555667049364934,0.03713914669829268,0.09209502364154519,-0.04890779887308949,0.04236766940651467,,0.006499761572162348,,0.08300106018189665,0.05605229748760064,0.00011809176767679146,,,0.010302061021862147,0.07700413316749978,-0.14771059553091614,0.09590091562223613,-0.03298539656044296,0.02123771694112894,0.03753268141990562,
SEMA6D,-0.07992565076682538,0.0850196863715698,0.008928603171500194,0.020960397444172964,0.06944318740223683,-0.03222939819695211,0.016665323625443464,0.09930906044366124,0.005519169406329853,-0.043333001880834214,0.008371241237489746,0.0014552631814520197,0.00728180479806986,0.03504413475148726,0.01902078896275158,-0.04410074573245806,-0.008029274771858674,0.07498149051407517,-0.031751605810293265,0.0009091721795667098,-0.051074090023568865,-0.06662828660070842,0.049438844600352465,-0.13246658705957845,0.0707644144217457,0.1328212171580307
CEL,,,,,-0.033475539823078104,,-0.027090764307094218,,,,,,,,,0.02054088016766434,0.06463608712414166,-0.06426182209796329,-0.008005654686910736,0.10125542099616787,-0.09257415115384046,0.04770808379634998,,0.10159912603220503,0.028183899212583245,
PDCD1LG2,-0.0158625039074002,0.07473158881026222,0.053758025470219586,-0.01386768668251177,-0.014925361296583348,-0.02915563037971181,0.02441990055241765,0.021947442514265513,0.0018720776719645085,0.054661460221891084,0.010669102777563201,0.030957315705519368,0.029703623146253827,-0.014246526258503766,0.08890858003670707,-0.017419033931135964,-0.029569832509893715,-0.08522412281210887,0.03273630103402753,0.08181235569351371,-0.04624027956955944,-0.021697450572484494,,0.14938240510571874,0.038329944269031406,
SPINT1,-0.02763927426690174,-0.05142593307128319,0.0713716058003908,0.03153224989975264,0.0672505788370194,-0.016584520503011534,-0.002443339030484407,-0.04581784443571181,-0.03188818951149221,-0.021521993700031262,0.0002056701648684552,0.023738283652094603,-0.011309543931857593,0.003837609058791086,-0.00037024089368541574,-0.01299924902171123,0.08135857694907207,0.03843057523739777,0.034490775509243926,0.11585810928334718,-0.04636735564931016,0.041314542766606455,,0.054144255711825504,0.11023254712173555,
CTHRC1,0.034045339014132446,0.1859320457905863,0.30987025637009713,0.0016997793637769996,0.14369003523349722,-0.020938586915703186,0.03843345144669854,0.14028478429662075,0.035583868952615096,0.048989401624244366,-0.011192203478675559,0.09686897525323909,0.03437898386800415,0.017923325797900482,0.13581468369355085,0.04047833972129932,0.14487745526398815,0.045900063114074505,0.11428976951678842,0.1505747760810522,-0.09943924554390603,0.2398854296481536,,0.4030366132281616,0.29270927438246447,0.004893813165139608
PODXL,0.07381292603685985,0.09606493288503155,0.2596285694398094,-0.010500849651847178,0.006326420722148428,0.015569190093471495,-0.026823828229331513,0.11670969783011792,-0.039790778090027665,0.04314851193644631,0.024405418108360746,-0.013724141377677756,-0.008898574102744063,0.09409763890816433,0.2402232350824366,0.15760102791509226,0.1847654071412114,0.0036746019080615686,0.08048518243208806,0.16043942336498582,-0.13838812665725525,0.13647999022726656,0.09930117912794414,0.3485194836769199,0.20467166639588621,-0.1009690564829626
JAM3,0.10048333543791728,-0.02345442342178797,0.09182262763263979,0.03508233613723043,0.040116966289375625,0.030245688458394555,0.012459972440650224,0.1438890551644245,0.0025471685015547936,0.011031394678394374,0.05500399719802553,0.32615962794665826,0.07704965800576857,0.07369557978923802,-0.041316975274081895,0.031397358582734104,0.03918745572289136,0.05188562094724299,0.025372844622528323,0.04348382809100384,0.008211596577515414,-0.010721074062144509,0.10439584385519092,0.07281406904020608,0.1495957364438019,0.09705171290514673
TGFB2,0.1199095352016977,0.03804456862882093,0.08497470399348205,-0.07095270026471767,-0.02323250312527454,-0.015410829859591978,-0.02087530964933887,-0.033545644782852435,-0.07205798582827345,0.02117910522419173,0.01711378445115737,0.057674991733235904,0.03217388375267003,-0.0026926028555517172,0.08566740675599635,0.022004096866862295,-0.11333826017920783,-0.03269750550169718,0.0678675862085849,0.10364255211310339,-0.12207617604536865,0.028414791587693524,0.05770753865534569,-0.14588987216189334,-0.02412304637599904,-0.06206491617894626
COL18A1,0.0035240153976626633,0.1519547225014402,0.3403750763643947,0.1113701275190565,0.07755104219569259,0.07134606337458951,0.06267136517844818,0.12844136029560393,0.03753118143532086,0.013980089226675525,0.042368639500207965,0.17588921004801925,0.04077948871178605,0.06906919860696195,0.23067273752846706,0.4114286194183371,0.22339697591863836,0.02009699270753736,0.19308061720706207,0.09455064588375667,-0.13017980003142457,0.19717670503456486,0.0719784569916271,0.48532093289891687,0.3015384243166978,-0.014953037245140481
NODAL,0.11097056820239742,,0.10099055797852984,0.004284708612364158,,0.006067951184942422,0.03321502753862112,0.061819512481664535,0.06632788996605864,,,,,0.06777725609454578,0.18735471194332526,0.32405123329822166,0.2531311639895938,-0.04823577974446974,0.036200216571247106,0.05715624937832116,0.03131478491637927,0.045116272342260656,,0.1308852044221495,0.07439845733393573,
INHBB,0.05979199911831835,-0.046094376390868864,0.019366665686031317,0.006979203276163701,0.0829689730121444,0.042224660473517056,0.03729482964244858,-0.03767508962433095,-0.02529120136862812,0.06277321780063735,0.029335797160202744,0.05761723210052128,0.07916391442167893,0.002822693656067758,-0.056036332198257204,-0.15248719026246058,0.05723674190585537,-0.02224526230813318,0.02764848715553715,0.004333456521319815,-0.05372137853119098,0.07082473962603385,0.054075798460491924,-0.08075555341188646,0.03204899793462071,-0.07074949067062061
LCN1,,,0.13448591246990654,,,,,,0.09464074572269913,,,,,,0.02435954070811404,,,,0.04805578585596385,-0.012017542516897975,,,,0.18653150438076485,0.08970710605898903,
ARF4,0.0006779111898339877,-0.07018953077703943,0.09947485058858756,-0.02312692764472124,-0.08837782212962246,0.010472172135451268,-0.010915816072230822,0.04825687326745397,0.00591333375684672,0.031656208913605925,-0.013280967406643767,0.045123984339258856,0.04170816561003492,0.03506283133229431,0.10611537825365014,0.21491833579108344,-0.013949157029152217,-0.05223546816994597,0.0927443651067528,0.146018071030134,-0.06538607307677752,0.024485466656748615,0.04550144493322498,0.15598472098177246,-0.01539394417167991,0.093867544205269
CXCL14,0.14391755700773814,0.07095028893965151,-0.0029037287991049094,0.008678993367890882,-0.004338307197884809,0.023292966121426367,-0.00460071466610939,-0.1315174749735673,-0.07679378994146831,-0.045569528118155955,0.009069205428093937,-0.17215651169762786,0.00010183715710330763,-0.047637073149597316,0.10762270291889744,-0.030135617488359495,0.1690528603581082,0.050170652917140235,-0.011343634965301629,0.02168653497395589,-0.21090838731634234,-0.012613401619043474,-0.011096125064199623,-0.10914066130667788,-0.09681221537505141,-0.04883102651224259
LIF,0.0027992512472999466,-0.08325889214153917,0.10567477274980658,-0.019192533611809504,-0.035830779911844746,0.050503942614103035,-0.10527955545069342,0.1006315653988281,-0.04741094340767318,0.006349198221762477,0.02185826231924856,0.061867629993502773,-0.02727483339929641,0.01670428530224688,0.12618382653399918,-0.08300254833749635,0.004496525459936675,-0.024397352020107586,-0.015029690989611037,0.01086750551026826,-0.07165464954229506,-0.011432419935668117,0.03878270035395571,0.00726189983603404,-0.02819893344302168,
IL17B,,0.11802994061392594,,,-0.012422082131559611,,,,-0.028437939169650324,,,,0.049021888942568745,,0.06090860357982748,0.032400993132045086,-0.004561392007960416,,0.04356319454586249,-0.02888528761265281,,0.08298806000313436,,0.13929932221291627,0.10801684572146521,
MMP1,,,0.0444515994264845,,-0.1163537750883368,,-0.05372925658403293,,,,,,0.019077671626948584,,0.15943154753283656,0.254770648837413,,,0.005638251869602941,-0.06795665802665042,,0.009152711065782922,,0.43006212038842945,-0.027290137600620403,
MATN1,,-0.011295456852954883,0.03225946368361013,,-0.02575911879599832,,,0.009643485944717058,-0.015447662890196917,0.03413135213726905,,,-0.003047923233192721,-0.040661037695108725,,,-0.013352859509636219,,-0.02280717192167904,0.004205943127804823,0.03679941183678785,-0.010847111712743739,,-0.046695561631404925,0.01893872187825913,
ADAM28,0.08340934186885593,-0.05216358996339393,0.0793123270348332,0.04349074838724475,-0.02460613321894952,0.005894120422697488,0.0690775911405359,0.06923981304318057,0.021988203510387407,0.006904270525101624,-0.01039123447548382,0.1428804645608108,-0.0165948285253154,-0.03618820942773315,0.05907154906063204,-0.05227487606014862,0.11968544557307079,-0.030771373897894295,0.09443307666751892,0.07100937448326494,0.0035481415081735127,0.0040311814018505,0.01894918869535964,0.15630374267987698,0.07837541691957126,0.051647475040692836
TCN2,-0.026786031135023553,0.043336941424947574,0.3039522367187703,0.019481705042605338,0.035442704988271956,-0.010931832147079754,-0.010054347499591687,0.05099791410897277,-0.011122808701005394,0.03580844348661047,-0.0010719706959969964,0.09930286626383376,-0.023019941392060334,0.05882124056456458,0.06769292451031568,0.18981269291844935,0.09191598027352571,0.09793542672843727,0.10992655715297157,0.13213331714164803,-0.12580480155037913,0.13566418904388283,0.03882472531204279,0.18982819562281833,0.1130542271228469,-0.010716851371689371
THPO,,,0.015449625243894935,,,-0.021187688961771214,,0.0067099046424975,-0.05217189125343689,0.07858227779464305,0.04132049527632138,-0.02418777715943274,,0.047816194786352066,,0.043211690238841215,-0.038835048092922146,-0.011406824253856026,,,,0.05390437362424515,,-0.05163351421284572,-0.04640462201523174,
CUBN,-0.0050784032141807925,-0.016665011422142287,0.17093632898748326,0.018834445548841415,0.020542089863114624,-0.009005786802478119,0.05706318442148507,0.0034195996566540147,0.07654512406337416,0.049017075010795635,-0.0009537738705826284,-0.028688071064807908,-0.05176406101067923,-0.022518572763745928,0.05303625180121404,0.04272241881638951,0.12216319115739109,0.04764984071680059,0.1206782028425284,0.02098578777375677,-0.073125224669174,0.07184112428956128,-0.030040396328493174,0.09906955994724738,0.005783789564211023,
TIMP3,-0.12423049492345485,0.023110916980823033,0.03325458728023052,0.03450592393910993,-0.01404730765247063,0.03118336961451788,0.06653668432205337,-0.05658543805097842,0.04695901383120784,0.01831700930746168,0.029746196747330166,-0.015880387584704978,0.0015341728860846229,0.05138652047369735,0.13664386948839582,0.2581798793069261,0.028162892821922688,-0.038693216887638965,0.07065185167076483,-0.012858151721075104,-0.18801154586797106,0.17516921027146085,0.09168494640203483,0.32757778176719476,0.23123711455804133,0.029832501084523292
PIGF,-0.03730713299193034,0.017619929400250006,0.07170462197514953,0.03551689058353072,0.02044862156799907,-0.05743327333618976,-0.012912196814900185,0.01997129391517757,-0.002879344632973062,0.035511808731842,0.056395505845564985,0.06794535837426778,0.01670929459245236,0.03525772591184159,-0.007360819075362964,0.10069090974331271,0.10806549357298594,0.022718424245850032,0.14882937401059518,0.08036854025883422,-0.010898360114546861,0.018645573170767465,0.1338779970038186,0.013519986432894624,-0.04198089003612135,0.07679867948854023
CRH,,,0.0659728881875989,0.035463982462668596,,0.022294806018313722,0.008867904595003556,0.006074331754553906,0.039044848929421797,0.01762363540047286,-0.020544997738910258,-0.03144607263549486,,-0.008863440108068658,,,,,-0.019892511189308862,0.013657465667862,-0.07210612970960185,0.0007735554619961152,-0.005350415927321315,-0.03882891873638496,0.06742653574587953,0.009739975305930708
BDNF,,0.10930231989519133,-0.0033932597545979423,-0.022651801806065665,-0.016408138953064373,-0.030724596947463493,0.03033142151007939,-0.0701163446387603,-0.021122360041920824,0.05909359083746806,-0.012460313622728637,-0.08764283273338383,-0.03917450807336733,3.272338626204013e-05,-0.05179727697847755,0.003223258995773338,,,0.1286850985280967,0.07676706318272057,-0.11411845758212137,-0.02491574286067445,-0.04499802542128078,0.01790762772401251,0.037172929264947634,-0.07863444277984262
CCL5,0.2010883802059389,-0.03494218742863967,0.09982814080360762,0.04043029242986075,,0.09377639717182737,-0.007565605484834844,0.05175400138696648,0.017895352464740173,0.06397287913518453,0.04012365574480522,0.04568757127878404,0.028331430535754893,0.03434250955332333,0.043270716568140404,0.011878873366474023,0.08266440307875142,0.05754789676067061,0.075049498476323,0.02634860172561806,-0.01955146717487269,0.12144359213692875,0.03484166461005655,0.2998250584035636,0.0727689588246157,
GAD1,-0.07095632071450413,0.11023741272042904,0.013589806525600682,0.029490099128939986,0.016158728566678583,0.014041077011238565,0.029747507019905924,-0.10922012382158054,-0.06139492051483465,0.01882762572929891,-0.05711201584205304,-0.2358211543546833,0.011057226576730047,0.008798522919774248,-0.04578154719795221,0.02655091227665919,0.002320565631900438,-0.05512965505123843,-0.0032149687647641504,0.08653522971673316,-0.052662353774632735,-0.01971742480280829,0.024090329132317966,-0.030046888226353447,0.10462573210656267,-0.1356814337970302
COL14A1,0.09991320656963619,-0.011156591612484949,0.2550073506895943,-0.018210494596684133,0.10346446566353328,0.058508880062229915,-0.016164182858375502,-0.02282797308396818,0.06419215960941277,0.04660127075987671,0.03257381319692703,0.14318065796772336,0.024993255621285338,0.06826833490282277,0.1528568786909097,0.2181430776250498,0.12171349708241493,-0.0016650922597609547,0.045540570444104055,-0.03667926438490468,-0.10437275502178403,0.0455086739650172,,0.28813336629558367,0.07639487380308733,
HLA-A,-0.20136060712927126,-0.03476816743759047,0.10389526259243385,0.016981167224071638,-0.06365521656948099,0.05447190704616678,-0.046227969272742954,0.08404144028515445,0.005139179540486285,0.11395419800613889,0.08437863138679812,0.3569540970900144,-0.02329140978906014,-0.011114676388850648,0.08414597953399583,-0.06431683605770078,0.17652220191361773,-0.06296998201767769,-0.022045436926883356,-0.08005516819642769,-0.25382376157321895,0.059131219965303204,0.038939881725903236,0.3284824485668026,0.09242540193326178,0.04616687173416435
CD5L,0.06625785625117303,,-0.05880981789836237,0.05807264758169708,,,,,,,,0.008439719552701425,,,,,,0.007222923704805782,,,,,,,,
FGF18,,,-0.0038334578716835974,,-0.011881706023286457,-0.044062383575845146,-0.037930914287376195,0.0015408244587347948,,0.011030034549811043,,,-0.04361273536585817,,,,,,-0.039627296415329236,0.05610056781731605,,-0.01799116006551105,,0.007959613123853446,-0.0584215462893663,
ADM,-0.03681938654991883,-0.18393383690522497,-0.0991605056735175,-0.009305586526402367,-0.0912185445850917,0.016167447721129928,-0.0918359379195346,0.0745215820569923,-0.07741934499193175,-0.0345383099357373,-0.00039038369501835527,0.06199215421476861,-0.03950662339784306,-0.051775728297349485,0.09008484332896238,-0.18932027597242884,0.06999168100783128,-0.039146663494350566,-0.16151195817308558,-0.14823929212215525,-0.05257530662681885,-0.055960992245236714,0.11717507095755611,-0.02020374959671466,-0.14708875785112677,-0.02525026368723459
CCL15,,,0.09629971119570796,,,,,,,,0.09273773093535789,,,,0.0657186892839722,,,,,,,,,0.10273855322363419,,
GNAI2,0.053306349544495646,0.10303995502517736,0.24701058197521814,-0.0105888219497689,-0.04089745789005321,-0.04586741568402754,0.08100160236813103,0.08346893867447439,0.034395355590438596,0.02782891197462333,0.017853528301223692,0.30774219439404377,-0.03631620762526688,0.07981943645818995,0.08065175359073827,-0.03964243145708884,0.07873883197190014,-0.004216552136261345,-0.008759658649190403,0.0506698138851704,0.043559123550089646,0.11739929814685675,0.0333271266039206,0.2530400485353117,0.06984494284940908,0.03664383761695584
HDC,,,,,,,,,0.023118370005792626,,0.01895218815175751,,,,,,-0.05718864774758395,,,,,,,-0.03527798029469722,0.009518178245687261,
COL11A1,0.048176979927573485,,0.05813342478271986,-0.010367133440394338,0.013011491795081853,0.0020294001886597517,0.04176949769799112,0.11956201935758426,-0.05782486122488771,-0.006168253680656508,0.026611323105561847,-0.024279808752414294,-0.01703206579078107,0.058294015715208675,0.07518048534192179,0.007407383845032518,,-0.004121376224292039,0.0008757536173962542,0.022403946661618726,-0.05847040377723103,0.09602485239399954,,0.05340598282104128,0.03374578935822618,-0.002950026242452108
NUCB2,0.02900792236615508,0.011905593340796088,-0.041305197007809,-0.01653279741608546,-0.023322225850415667,0.025480370334793095,-0.026175024776879018,0.015507739912603631,0.0041399044470288235,-0.004241100319044558,0.09565581795226624,0.01203700608527977,-0.02409236493695823,-0.01237497628366615,0.05809227397847436,-0.01163681311611505,0.07480286102434744,0.04482535495566908,-0.03139739935335966,-0.09342523095220939,0.008048090608909044,0.037405555663426245,0.051440770869371766,0.09968621183604956,-0.0391856129189226,0.1045956972614927
FGF16,,,,,,,,,,,,,,,,,,,,,,,,,0.02742055695642882,
CXCL1,,-0.021716281118884843,0.03923601069346484,0.07088225158875254,0.022825125040159436,0.12960099874804532,-0.0035425744883110896,,0.04037116479864246,0.04293355429099596,0.0051974806892468,0.06219433670161326,0.056968652725082,0.03327830766185784,0.16058112293994145,-0.037194311130566246,0.11724168839882339,,-0.006174464623619951,-0.013800452816408591,0.027120301485352317,0.0655377092530495,0.03193558503535234,0.0739159793500836,0.05544955771228635,-0.08138135068579119
VCAN,-0.11269282026339841,0.04479598274922972,0.011335723635956134,0.032387946279132496,0.10965815609878238,-0.05324836632256257,0.03558637030685543,0.14100505598425875,-0.029999974898733402,0.04408895176211684,-0.011145392457382433,0.012515861664284351,0.05245797611084964,0.08237744354292657,-0.08683746892042792,0.06294806410427589,-0.031832137130312826,-0.012621879889453494,-0.006815714636843676,0.024819896725715964,0.055839403755391884,0.07053835260447319,0.05885673179963109,0.11498657796922374,0.03062983636266788,0.16314323547160592
MMP7,,-0.04744974599564736,0.11365944649742525,,,0.023647278468298092,,0.08570184533255065,0.03866488400382587,0.0045296030598366895,0.015293210490133343,0.035901782060615804,0.027194578715145183,0.04891555238052998,0.11177842769695098,-0.0766626518104851,,,-0.00291880232660642,0.04927454466005443,,0.037190433844122746,,0.28156045195263035,-0.055536918121533656,
PTPN6,0.030173485986142997,0.06074453062497635,0.09373981549424333,-0.0224346672505892,0.019700190290653157,-0.019253383994697653,0.06776605216524549,0.06784264787170417,0.022851769192876733,-0.0074470530812063606,0.016774142531425226,0.11854384133398434,-0.013253051319141377,0.03437632793816503,0.1398706324654677,-0.06836389138063578,0.09616663349126399,-0.047652113416976706,0.05119360035290626,0.10811499288869768,-0.09816270683335294,0.08060772775718925,0.06643368338031702,0.1584048232151613,0.003980287481352077,0.03447091323749712
PTGS2,-0.04738279132525791,-0.08463097751901827,0.0502566129725784,0.029811349899136023,-0.057470717671466845,0.05381615238187975,-0.033361819622318496,0.002154873892962648,-0.027259815476369433,-0.033241022639334254,-0.007445848833179866,0.04533154751005668,0.02283393365554867,0.0070075368724433285,0.17431115469135144,0.13800075243048074,0.028388834950901786,0.0016274474156118602,-0.06273770699308441,-0.09845750255117797,-0.04910763701146273,-0.004157059833059261,-0.1926798779891472,-0.05940870459178041,0.012174073168882369,0.016026834347549247
XCL1,-0.006695331271197586,,0.0013103158776474023,,,-0.006961114197392471,-0.005796657622786381,,,-0.0005047465021809797,,0.09673190747727436,0.03685914825633757,,,,,,,,,,,,0.12675136657946082,
CD58,0.050233778435994615,-0.03623618794228048,0.0960117269497745,0.022749880982364416,-0.03823791927153975,0.04297092009054639,-0.01868840404637468,0.07248304976446993,-0.0223003919967623,0.04985651898407655,0.08259587436625536,0.1072479762933301,0.06820671266191852,0.0765502222186134,0.0224238006737713,0.0340052535686459,0.042756819876671515,-0.0447074032327516,0.07106408464343138,0.08231696514374925,-0.051621442362536366,-0.003964656046347653,0.13620856368925174,0.08939281851096029,-0.016870526165115755,0.13128837407979158
TNFSF14,0.02594336337268787,0.006427841345959815,0.057096843198099205,-0.023330323391702205,-0.05226335208218561,-0.0326323684852849,-0.001810471754755738,,-0.01595724349537517,0.06732498648447609,0.0020819303959491156,0.16700132872803067,,,0.04130936468198408,-0.047318674692964025,,-0.04663620742285344,-0.03479147749904799,0.035400926428279696,0.016025966921202936,-0.08166236907970954,-0.012901358684060012,0.04320250507377074,0.0939306790309477,-0.0829077843245284
CNTN4,,0.1338393210911004,-0.007759337952257923,-0.00019917670621675038,0.07102876193160496,-0.017749044379686284,0.033118929487642564,-0.08850248513914453,0.012634725477060633,-0.015217194441767432,-0.052409787298421065,-0.2338132488930288,,-0.001308211513567629,0.06447968007500283,,,0.12099893987922335,0.02377061536834095,0.05982965987699604,0.06456001657072723,0.008586739218609743,-0.09770758709286509,0.08129891063270785,0.10071792304152506,-0.054499968405399765
NTF4,,,,,,0.0572262344824313,,,,,,,,,,,,,,,,,,,,
INSL3,,,0.022685162483300332,,,0.01817188536314135,,,,0.035252147363920815,,,,,,,,,-0.06406099434465448,-0.004696828819998448,,0.021867549652437025,,0.12470278678616886,,
BTLA,,,,,,-0.02387397922054079,-0.05956125471435674,,,,0.06189257520303683,,,,,,,0.013353069288414055,,,,,,0.10833581076587721,,
MFNG,0.10656247321236198,-0.00908130397330191,0.17174555376233275,0.05173118017181297,0.01825245369689399,0.027987860185799754,0.07144058590654623,0.11117624413712178,0.03909218628085482,-0.03063967472023846,0.012847166042694463,0.07217486907844164,0.028269431445884573,0.07935517526818427,0.002118333933500603,0.04009628288635109,0.15859271279173093,0.03191151692119127,0.1335034796904504,0.10089400471419264,0.0323162280137961,0.09891007018780937,0.015402745254562419,0.11736569762391609,0.04682777934987616,0.018843576868229617
ICAM1,0.03591146855446652,-0.04863066711448228,7.713511437523179e-05,0.01662439352804548,-0.05162377988895213,-0.020757073502664255,-0.0472799097807411,0.0865264623154805,-0.033323014699523666,0.11406028614396968,0.03844279974768713,0.13123752945852166,0.09297644046269937,-0.015319363770409265,0.07455509158766378,-0.21860508590198102,0.0568538899819506,-0.0919272239915687,0.027538668862771273,-0.0017568508895767926,-0.07504362458851525,0.017646224287522994,-0.02434765748582406,-0.08917702230081416,-0.07850607674439128,0.04619539025357156
PROS1,0.04427147929952008,-0.023930978449032136,0.1675413754114166,0.011556843622366225,-0.010863371621851524,0.01177963373569436,-0.06899509667850556,0.11580940360116207,-0.06084371388333304,-0.036683002759453645,0.042578870995597026,0.1063588269392961,0.05729783520383903,0.028062570772216067,0.036113536728110296,-0.1376652592328597,0.0641293773880063,-0.023638016406686058,0.022339941020728265,0.038874492826116935,-0.19934080988932198,0.017066403994369195,-0.037968495455631836,0.012678998287940025,-0.029253961310804787,-0.03363673055029372
CLCF1,-0.017947735189116167,-0.01866824163033794,0.14596713697490965,0.03663182491036048,-0.04899128709960345,0.049566986354993216,-0.014439823818689032,0.03039737636243784,-0.09691557846412349,0.02477899614367445,0.03449920375861709,0.1166453811229728,0.021265524035151293,0.007002567503216127,-0.003860798577345478,0.009564746055762291,-0.01563332757586023,0.002886642125840118,0.02276979689853564,0.07763658045901616,-0.05263814575679106,-0.04738239504332775,0.06613639046504943,-0.050312282267256335,-0.010829889697448336,
PSAP,0.23374376150192888,0.12732961936161655,0.15936201378872145,0.021299151178239866,-0.01798069615917984,0.034562705000672975,-0.021205224353599054,-0.1507953934284264,0.019323683076558944,0.01899651101374286,-0.034441374570032116,0.20484265612464503,0.04514217092839986,0.04783752237239979,0.04088697407449381,-0.11746683951083875,0.09215597321274875,-0.19719032847252188,0.024470694642095264,0.007036139434656867,-0.10454316931816057,0.036844615479496606,-0.0033330913007341458,0.07562709187871747,-0.003582911621841383,0.08390882107564232
EFEMP1,0.13908430519947398,-0.028078158707753913,0.0981831495191256,0.05842833995694738,-0.048338837404473804,-0.013498180808900457,-0.06309902930292767,0.03811157148213193,-0.03573969220873758,0.07152381553679164,-0.0024803453843890017,0.2757317048663806,-0.02322370756727044,0.028579364382793734,0.040515584897694815,-0.15006367926134775,0.13152461748930142,-0.03214057628727313,-0.010175259444501358,0.10022852835191569,-0.12853229203847288,-0.05273230007335815,0.14079922931627784,0.016961856655322325,-0.05265900277034043,0.0634188869394194
C1QTNF1,-0.0607998477334573,-0.07041894539406571,0.06426662579150028,0.02707726088104127,-0.03250138755910949,0.042072409424396384,0.012933008282749398,0.05415187022664885,0.016537147878528256,0.0170787752114887,0.1032900520319443,0.031246901159678875,0.026281939411927805,0.06488662547444674,0.1601588265071378,0.002761941591901036,0.04452143762823195,-0.05454140529279383,0.014314597754357922,-0.04889288778632769,-0.21031375401999772,0.04004261305465417,0.11248048290305777,-0.1464208593445866,0.0068512657172658895,0.07460362731914502
ALB,0.03908266179285281,-0.04427303244167416,0.06857934350806964,-0.027848784470080556,,0.0392396795228027,0.007183072063725591,-0.013279316593710948,0.04349714786355949,0.002689758433930833,0.0009550140339359782,0.09063232329372874,0.02347163655169545,-0.012736014100702171,0.044649486872994665,-0.025550108230144402,-0.006281555257293824,-0.0094317657003822,0.007067598860340024,0.042437321928721364,0.018298219815653372,-0.0113797662046244,0.03958045030001092,-0.045306236043866,-0.04889023296502753,0.05981943956492125
CCL13,,,,,,,,,,,,,0.03407225578565046,,,,,,-0.023819418460609535,,,0.0041404056001341895,,,,
EFNA3,-0.07692083257751856,0.03872239158897979,-0.08153011714090963,0.0019033381459884746,-0.03363615402447437,-0.0036419154706106485,-0.017729774286805153,-0.007776075137982813,-0.03277401632574105,-0.03520318108294779,0.026724407103361256,-0.12138257504786926,0.005823209414072828,0.014483043267976158,-0.03973085845830176,-0.010125969851770313,-0.0456209247052335,-0.048718934116251715,0.06324475560763922,0.056842167484175005,0.0008988187106223988,-0.009733025751227708,-0.026052320447751375,0.01540990633495471,0.13987219305366838,-0.09474897175983261
DRAXIN,-0.03542035114278466,0.08119836005072106,-0.014181386473436124,0.02433206065637448,-0.04157001713080999,-0.011298910826661707,-0.035333291363596746,0.026803740504794626,-0.0032038206221382034,0.002977538246770432,-0.02462722074719,0.05985706238144931,-0.013177456145439283,0.0347147374303347,0.0677138979482852,-0.06124321905769067,-0.000656987935202387,-0.061661949381959666,-0.0291545261170299,-0.03508700267347873,-0.05635318150541409,-0.009244433401123171,-0.03379048836371767,0.22554248406738797,0.0742535039456002,0.009881836882666589
RAET1L,,,0.015681959320688648,,,,,,,,-0.0074355331453756,,,,,,,,,0.07648804900072388,,0.08136145130214306,,,,
NPTX2,0.07442280990399598,0.18994853341111811,0.006222643076983592,-0.04204724858962487,0.02506157101990114,-0.023027327405767822,-0.007038713444636979,-0.10692911640616971,-0.021510326256517404,0.013976974148674992,-0.00020320401278365783,0.17805976059481526,0.020197648177340894,0.06813222125162123,0.07330402341642292,-0.07973423473096145,,0.06992406205862109,0.14791646068530112,0.21670553276492835,-0.032905010831050525,0.09224821133525193,-0.03337834729187576,0.25270567437263713,0.13347336785610486,-0.05406398839253635
FGF11,-0.1103780625088232,-0.04699393731614885,-0.08901187086178587,0.024890287344527386,-0.08519727825796265,-0.037975086129285705,-0.04476343180764301,0.10264107409375839,-0.028281269174504374,-0.013941185497675286,0.025631293066536037,-0.008398950760628143,0.08629191266666209,0.013383333008838158,0.004467710944151013,-0.13345263468210733,-0.12375545888541271,-0.025783739896168327,0.013090451182077606,0.004414061310277673,-0.04404262798163857,-0.07307532291506706,0.10830651003797191,-0.09151773099594765,-0.03718260988479571,0.043096222035755055
CD59,0.15151350730128685,0.12554529248232763,0.22564150295714294,-0.009499012279788235,0.09393419229316984,0.005454178854336267,0.03929479618690872,-0.08901343745377886,0.00877530855723623,-0.00591871920585366,0.013373096544747753,0.15875971051477894,-0.007576311170090743,0.04790777745389215,0.17075109326065113,0.20032769839047707,0.23282943227730712,0.06052114348637683,0.10969763317846856,0.05515454486209885,-0.056978419823578326,0.14045717726547993,0.04587127212359384,0.343846124291433,0.24185226093344833,0.10651587153654044
COL9A2,-0.03007354391111838,0.052501982348938936,0.11459850022347144,0.06878977843408927,0.028688010518660715,-0.0074149457055627315,0.0917461302629536,0.15531967465954669,0.030616790778205456,0.045726081148561845,0.06238720659432806,0.14509378394295483,0.00531625036302705,0.077975709750203,-0.02627262561745118,0.13605949917715618,0.05845752255619781,-0.026867336959510102,0.15339630683666478,0.15517414648800157,-0.0009563535282850641,0.0009154364315249508,0.03730365311315187,0.05997645578949311,0.10397501763034674,0.13848797334974738
DLL3,0.097253966382472,0.1739637252147038,0.00290871628636318,-0.012564035647858346,0.09634243190883073,-0.029222574882761906,-0.02824119712655299,0.06571083928794148,0.05345378296338674,0.012643196332207231,-0.03109302482177731,-0.08582096321983955,0.015015267886840898,0.1751330397687661,-0.14881648874891526,0.06447979362219315,0.010014121174600122,0.09999841303535155,0.053355723871237555,0.1116201349339078,0.1412725156959598,-0.053951843700060904,-0.016858604768710362,-0.07281769043395601,0.019353746928112096,0.03815253417401233
FGF5,,,,,,,,,0.010341816264118125,,,-0.005862725097308489,-0.029661934537934937,,,,,,,,,,,0.04944138426425766,0.005422739091950431,
LIN7C,-0.06065643193932307,-0.052808938493522764,-0.007449877483180222,0.01840622319038537,-0.014547881453046913,0.014332926692442903,-0.03750774807049913,0.03783527217821035,0.016284630860651423,0.022432481533757032,-0.03658864888256277,-0.1383711130889034,0.06129569182636488,0.06681090874498408,0.07239833105841519,-0.0702090642261845,0.03206479099118678,0.08802576379035987,0.034521660434513546,-0.014809814077867146,-0.08549105015924843,-0.07741292538663087,-0.0290316733024458,0.08652667155676368,0.007517531767547424,0.06505822363463301
GDF7,0.01214565475143951,0.04671996125045035,0.023090927105836927,0.012624608643281349,,0.00637989659028469,,-0.025270352135925545,0.014842843171329915,0.0433998618457393,0.012382443637203169,-0.08896826818724196,,,,,,0.015883687449259668,,0.052240657639558125,0.033595306700316935,0.07673313630373609,,0.05232920258720149,-0.02961525730689289,
PSPN,-0.052202667784642345,-0.04482306028331731,-0.02371295281959128,-0.04857451349209482,0.04827663012200094,0.009290348888760758,0.006760765046722097,-0.03736197017778467,-0.05049996483133892,0.07717729421733933,0.052595671238986445,0.06407154771485506,-0.019375303103770503,0.007251283044961702,0.011575958287513016,0.012042202235313366,0.11168480921041364,-0.06447116476284742,0.08601733810364283,0.11034649108710859,-0.029452598703749826,0.008543036769836126,-0.05872651538096578,0.03174111889275792,0.07323360078789969,-0.12217584199223436
ANGPT1,-0.03989416216024022,0.11981202204048894,0.07280424241478331,-0.007519157431201094,-0.03584108105249472,0.03917899890903581,0.06756637419109936,-0.06460158399527098,0.01408166672336579,-0.00043240159000816365,0.014291429089371888,0.12694578080400526,0.03189116537923087,0.09038403209671647,0.09897634172206235,0.06564108456393693,0.0004929928344739237,-0.024999290946716858,0.07440729945974603,0.035087241947186126,-0.027499383404240015,0.014503084382188886,0.062314822783442504,0.1967388134802574,0.07152741411683776,0.017290257124653548
PNOC,-0.007868801968359852,0.06686709989325286,-0.062496748937855784,-0.005260953547830809,0.04313150027016106,-0.05047728607437545,0.07088579391805999,-0.12050423894066337,-0.003895594782535783,-0.012372127582609159,0.0023892407105736988,-0.15349218298793726,0.04726197381399312,-0.035920806145210364,,,,,,0.0293086720143617,,-0.033928087454884084,-0.009317664525864,0.010427506266479654,0.061807245274149526,-0.04593939367418172
L1CAM,0.022670800888888863,0.11472191533960338,-0.012346933261947956,0.013192250682063082,-0.07858095179461556,-0.005490196273978395,-0.0401920833465365,-0.014224911609206652,-0.07931213060667361,-0.0422629279378221,0.015154241633455105,-0.12755977904559612,0.047045041798621325,-0.048631046049427744,0.079635730268712,-0.08831022863439918,0.006333093581955463,0.041432465588824775,-0.08849778002295229,-0.09996204870238003,0.023731383310216445,-0.0960595947117041,-0.10879890251273248,-0.04297294948405934,0.08810967755050768,-0.0877389950972884
APOA1,-0.0848964107409012,-0.05766479664019196,-0.001212718626054763,-0.017280702473426664,0.0727262652377575,-0.01361039722489806,0.01762464433893294,0.030869701241482916,0.004782305075107947,0.024273926350394274,0.0001678081676137725,-0.06733143175349547,0.04397912866804808,0.008680514566060686,-0.06011824130464051,-0.043573456457677726,0.09736264618263313,0.011164654859635359,0.01752446454515874,0.09890794257424053,-0.05651576793706936,0.015925707498327574,,0.08011559282999466,0.03325305504451312,-0.06714145914410034
PSEN1,0.10632944225596726,-0.008319582318964467,0.08612501028073057,0.08184971904968898,-0.043648451675457986,-0.05216742613387212,0.043479618536332296,0.080051941127382,0.016020215545248625,0.01948259705878553,0.029647207610571536,0.20997283011666568,-0.023279413674140173,0.10306971146046061,-0.006431290811961157,-0.0907253476301637,0.13082204762645924,0.08964883150208702,0.046442437084409385,0.07351717442005663,0.07809828787193851,0.034278560866604496,0.17192553408458872,0.008764545121748922,0.04087515388943213,0.15468114144031603
CALM2,0.0306797262327688,0.14612738270682463,0.00270898606707041,-0.013181760215732313,0.08289023131821466,-0.006370794158311918,0.05731249012896709,-0.06942098451673032,0.03059695565885553,-0.012186257297147585,-0.020375406109095544,-0.23844065035720854,0.01966063311774582,0.07107094557903071,-0.01034082339682207,0.2312733688610206,0.05913062714619456,0.16923923827190665,0.0949267967402077,0.08960197380190059,0.11472474052711913,-0.03253666818236149,-0.011559594936522756,-0.18236922115140938,0.005775670862581844,0.11447911145049897
CLEC2B,0.10691027168467515,-0.055429003413784685,0.027071544279068795,0.052186188781765425,-0.1037772044733478,0.013097272724897045,-0.01281227836954821,-0.02457856683052471,0.01937088031340793,-0.0009904211380427786,-0.007946160312751534,0.09358401581244485,-0.0419251469873984,0.002105886580036177,0.1666046108788374,-0.1461871741534971,0.07942284588337438,-0.04460626617999424,0.03716913241093667,-0.02045063957029844,-0.09488684679903085,0.11906275800196021,0.004944503057188109,0.259027731478988,0.08022298842094208,0.06213676582323647
NTNG1,-0.037227472243060146,-0.0337707117287763,0.026159353419161282,0.015797739030093648,,0.022878555019042852,0.08515146341456825,0.0288529676188718,0.015155440926032928,0.0459845589568614,-0.027653726048909925,0.002218737182702629,0.058510037551254584,-0.022206024509928975,0.025678988301005772,-0.06643323970006233,0.022818536601483596,0.0482565104077058,0.05862166345766171,0.12811190807019066,-0.04894391445250129,0.027318812768621033,0.014084029939748033,0.031031114820232422,-0.012953479030557876,-0.16732533717574793
LRIG1,-0.0631655565438555,0.03036895570206915,0.04098776781847308,0.04610894173559795,0.02198884465525307,-0.08429411973601794,0.03027430693946002,0.03190273752907479,-0.07707668009519762,-0.038542514211501955,0.056239603793418906,0.16934967546431015,0.021480446031422237,0.017674409091525595,-0.04005086076801592,0.07769108175992587,0.07000669535149254,-0.03760990946108632,0.08870496229010184,0.15104657552363845,-0.19841926368357524,0.0007689398129483817,-0.04630884978385066,-0.1735167851053786,-0.012289815169694957,-0.04396633269004847
CPAMD8,0.04253422821476113,,0.06589688812703098,,,0.02319279999594189,0.059307256515602196,-0.037533540761476504,0.02898555962350876,-0.037711397726280155,0.03004023504480371,0.05323082483519418,,0.03727166633372068,0.04690294168825285,,0.11344008570396985,0.0139897302757704,,0.0031207515945546886,0.0714014223933924,,0.05014318973305977,0.11239176655601239,0.05471100933312614,0.10703701468732539
GHRL,-0.019523395225810463,,0.04825171192907323,-0.03790704369855603,,0.0038190166668877145,0.07969028520333907,-0.005979948449058133,0.020794994868838006,0.02076308846909272,0.0330484285322,0.05603754676056479,,0.04305674616978173,-0.020166514807805565,0.0323925112141984,-0.02226945951190745,0.008863402080539231,,,0.003313791704619963,0.04185578813627762,,0.06624843005619623,-0.005096717369993833,
NPY,-0.034027838593796815,0.13429831325953312,0.08855199628044312,0.032152669284750156,0.04423249146547425,-0.04408438565808671,0.044241313280784574,-0.030846693515470196,0.011864977431937153,0.02984380909115044,0.06793810994395187,0.08416575205427537,,-0.02140739764553567,-0.1462605891660828,-0.010373427172777007,,0.0009294751520590465,-0.017639910585255353,-0.026409045294201156,0.1004259959535609,-0.03632469684149908,-0.16352788296744342,0.14280033374275838,0.047373343566349445,-0.10032387635697004
MMP2,0.06211374999815616,0.16299416317506488,0.24199236371014543,0.005077803399421038,0.059266815916929276,0.02912652492978939,0.04631819086281357,0.10162648795347289,-0.011830035966406766,-0.006718108367711945,0.004444297786946505,0.19821755886699452,0.04406134234901004,0.11777707580513361,0.10733531073998102,0.11896450079726005,0.23327143951038315,0.06684624835964871,0.14299287857867699,0.0843239662437522,-0.1253293148105694,0.1237129460072546,0.032546107009086334,0.30671887827538874,0.10905706275899027,0.03687182798655671
LHB,,,,,,-0.029937559453090217,,,,,,,,,,,,,,,,,,,,
PPY,,,0.04180449722321761,,,-0.001897613457859178,,,,0.029631975305790745,,,-0.028283646839736453,,,,,,0.03979448708419309,-0.020817543417645586,,-0.022890231788956474,,0.10949184170453978,0.043329873256588915,
ALKAL2,-0.009036433284653258,0.005314936996353578,-0.04022016620700589,0.03549019873348339,,-0.0022293055758091066,,-0.028100618509599117,-0.04494560404061916,-0.008376622748225445,0.036214646285617484,0.13660813219162823,-0.026539031203560524,0.06449063088648373,0.05710541585319221,-0.009181941448369368,,0.041091630788743484,0.019326064975374792,0.05969360193680543,-0.03015945560112634,-0.012330924812337923,,0.014264241400995775,0.00470709247375717,0.08156325411962932
CSF1,-0.055020345881260105,-0.08755030429610312,0.09092791258137915,-0.013341623472856435,-0.039272474036964385,0.025643965260433707,-0.024115392868441648,0.12706723793752156,0.004689417854533072,0.09847298612868628,0.01384814462855645,0.1345314132389542,0.030089323031471805,0.037310061229528034,0.06960743844052135,-0.11923647394960521,-0.05016470978768963,-0.03453969132719799,-0.0026650287800565695,0.01733660027864956,-0.06613354639821595,0.011593709418836673,0.03360629313849303,-0.12423012585909256,0.037852196356760896,0.07017356641398291
SEMA4C,0.05334039972489618,0.050382427212484135,0.18436725672675675,-0.012229563436723306,-0.004233348203708902,-0.003740295143032472,0.0037305927954409505,0.06912857286702706,0.014986277181849292,0.07541925787612633,0.028661366351050967,0.09264100786625847,0.01527630445155694,0.08127602439196173,0.08225063748850305,0.14958936283858912,0.10031499575046648,-0.01460394096111803,0.04575438816517904,0.09330940604464981,0.06804966813819345,-0.031610448129391414,-0.03206559044913261,0.2918834007504665,0.09065614024229877,0.15198780945538673
BMP8A,,,,,,,,,,,,,,,,,,,,,,,,0.1342123218333419,,
ICAM2,-0.033929703341160224,0.13601681790336329,0.1740178735925291,0.03834440245806502,0.08821689503200558,-0.015933138953839757,0.06163322143457957,0.05785924967638708,0.008234203192267996,-0.025818160418950388,-0.01428810180224962,0.05789131673394961,-0.020689770166452185,0.1099689733243783,0.1520839890002142,0.27190914330990507,0.2337014377105727,0.07060431669213303,0.156763076635227,0.11934928135680625,-0.02982296084424201,0.11808747303460501,0.008042343067509991,0.42699202203267944,0.16817396031342122,-0.00993172663710272
SYTL3,0.02210280628718721,-0.021712689916673463,-0.036162533045160955,0.03897401940841522,-0.01487988359632444,-0.023317358945077506,0.0173562719817396,0.06440720391730224,-0.006745368556781211,-0.005663523421299006,0.0917153099143854,0.03452284796388127,-0.010350087105286001,-0.01911049182040203,0.08337949817952774,-0.08071334334941643,0.09542286329286849,-0.01955859951830087,-0.021104885198565026,0.062041255855203266,-0.058213586005315586,0.0066211885608951524,0.05227145837604379,0.08088688418226947,0.011438681961425648,
IL1A,-0.061674078458512686,0.002604169425416258,0.01717023789176586,0.000268301150577781,-0.03201979189069478,0.02181222609529871,0.015565245105929389,0.011082379771796703,0.061851795946391945,0.08183696536421203,0.011269816015972326,0.08021519884062235,,-0.004006454134688708,-0.023959843295977952,-0.036879524419240625,0.0884905289625338,0.05455412034074481,-0.0701574562758353,-0.017313244252317575,-0.017887906557794594,0.009996153585982197,-0.027795918348098355,-0.043099010377193006,-0.021702563766443184,0.038244050099968376
HLA-G,,-0.037466602707021894,-0.0357506258428662,,,0.021621792847257553,,-0.0327869376934522,,,,,,,,-0.04649387275853598,-0.03144545893126724,,-0.029830555891950047,0.052382248651046785,,-0.012594609849516988,,,,
PGF,-0.15064067268383505,-0.001557754457744789,0.2755313017378941,0.023052193683344505,0.03772436995183432,0.036964777794703446,0.07955804709065101,0.10719785198437964,0.017674674952300254,-0.006697958804315484,0.04969675876687712,0.0715974058188861,0.05283333530337414,0.004172698791078879,0.2266448815623319,0.33833706593202667,0.18469349282688888,0.019724280782387103,0.15503288088133163,0.17109838393243687,-0.1253023491250786,0.24523115634534826,0.010263968399187072,0.416823211960214,0.23862424795546167,-0.03169798080796887
LGALS8,-0.0860521664978716,-0.018896936917551458,0.023145819918666516,0.022887898102543956,-0.044188515467325995,0.030541394446102366,-0.051181197085197284,0.008970644992070767,0.018937431713828744,0.052546071126782716,0.007026694069459435,-0.06976541013198521,0.037185324223531796,0.03329814270793224,0.05053367570734409,-0.07134620782547521,0.019545822827878194,-0.0580768995683117,0.0022669834755052547,-0.018779609679704348,0.015410368830851132,0.03475988202037814,0.07326494638037896,0.10656216571595749,0.002108393304549579,0.06553112666430824
DKK3,0.09624797838128979,0.17730051251574902,0.09443913784478145,-0.020415572154595656,0.06125488236344912,0.02360077404247191,0.04623448044724957,-0.17033702746720414,-0.03878047648176524,-0.03649744613554868,-0.06564111079040294,-0.2671839328810108,-0.03032654732186265,0.052699052393110554,0.1877706712130536,0.3078750489566523,0.14193975519825247,0.01282504500545247,0.12306858038204688,0.11991347655294478,-0.1741221973397744,0.00703648827589349,-0.0670401980863645,0.12409550246677759,0.13215911227172078,-0.09924671238981005
COL16A1,-0.08912584837145993,0.009448151558029616,0.1501969128059345,-0.004245666493784719,0.05044635348797583,0.0007779534855823573,0.04705008382989211,0.0960338834391245,-0.059431784412824505,0.001255897729380865,0.002618081015693721,0.05648060215168829,0.03396153698025005,0.09257146015163806,0.02766955404818917,0.12973109804148486,-0.037928313226913805,-0.059441314688275126,0.11517817270813488,0.09849490019147483,-0.04137536562443793,0.11930801633117953,-0.011751980642412412,0.2731639674946853,0.17461432882563072,0.055619651550109304
TPH1,0.11044981226068802,0.08473143449878813,-0.024125623541181026,,-0.00448708607829581,-0.03445890753230267,0.00225138184464246,0.016383105989071445,0.0011658628544439459,-0.016125778480454857,,,,-0.01088022051821106,,-0.07120864723586506,0.03878387529766693,,-0.03532150149204084,0.0007139910712346514,-0.08220117703047286,-0.03794218059996411,,0.141533205960463,-0.00960586739626058,0.07890251983251093
TNC,-0.1451995331364293,-0.06816782895974885,0.0814796376336611,0.015297642724162896,-0.0671419980440177,-0.0160509299485426,-0.06299765160940646,0.17074381621432422,-0.046232061258680617,0.007281533517323829,0.04051462959896379,0.3002954132749837,0.03261124655191699,-0.016962788411992023,0.054856796615090686,-0.2591826379958929,0.0846610728920911,-0.052911716302872586,-0.05532259163954078,-0.0031845596507538067,-0.10858708914959514,-0.023470303994303377,0.04630176754236442,0.04297270756809697,-0.10539379230759655,0.036688180075900384
TNFSF9,0.017717602185822072,0.024052823605584597,0.037353839296377554,0.02341762518269957,0.008294279198720639,0.022312763693773385,0.0017101579605824676,-0.00804067020975233,-0.054511231142919524,0.015550851957694404,0.0214499674195621,0.06191305279837595,-0.0761459819158664,0.02455479353337387,,,0.14868154052684893,0.008960505295994911,0.016821461970418634,-0.04316233507910913,0.05124267728890444,-0.0049217941733104755,-0.06269688794733283,0.012257882467513621,0.10168913356726805,0.007093407844530094
C4A,,,,-0.022917519834390394,,0.010168021139930887,,,,-0.007871097034532476,,0.001613803583492484,0.0351706201898596,-0.005847454087012064,,-0.10321350273011419,,,-0.022984934655773587,,-0.0024465499103188165,0.03757640287377747,-0.08895914200325358,0.01242999122128559,,
CNTN2,0.24120506399996017,0.11196566833458382,0.016281850602277617,0.03941714779423871,0.11083920300214903,0.044558259119510654,0.10676842628010887,0.1215764744150348,0.08486423409735992,-0.0037810042935130473,0.05426086496283221,0.33686342910043,-0.004623114016756844,0.20109795999194552,0.05715063313268484,0.007864282144056281,0.08361425915483285,0.15196060786764726,0.01344122679877048,0.1248842251932341,0.24108212567243537,-0.01827973821594956,0.25411373179552915,0.03563583630877616,0.08597296889218135,0.20549910704091204
F7,,,0.018168095156966997,,,,,-0.03011083810401187,-0.0565346478390708,,,,0.07233804472135515,,,,,,0.09241146209674662,,,-0.0011232035472404191,,,0.09470867869380464,
LUM,-0.029877704951913928,0.1137326964019189,0.27380636369778244,0.010788849350295998,0.05376127320904254,0.10226748922882513,0.021040890624267467,-0.01739323033107053,-0.010576606858229037,-0.003877412995472456,0.01045075616169307,0.11104794639644548,0.06645984631745365,0.1134260013968258,0.18459322257558208,0.35026735541913456,0.08590086750958847,-0.019588393282444952,0.22793718507358793,0.24426459582477905,-0.1273947234650592,0.2600150559885437,0.007155808510349536,0.3215120641176745,0.13922207240667997,
IZUMO1,-0.04039353804258264,,,,,,,,,,,,,,,,,,,,,,,,,
BTC,,,0.046813516873158906,0.0009125742727187914,,-0.03803042085524617,0.019113538986506185,,,,0.06685349582423412,0.055245949449803655,,,,,0.09295027674357804,,0.06509598748659587,0.07496479019751143,-0.041507605739675386,-0.0652204393688437,,-0.01026563538800484,0.024303209570796215,
APOC1,0.26921172337440463,0.10126744164704525,0.009543260348713205,0.043209710963163124,0.09410381728047768,-0.026978557870436046,0.0417310043644989,0.1174681207495069,0.019560319812259315,0.006556940964267625,0.03350870219427873,0.3573411588483172,-0.030581024052409523,-0.01002445610711684,0.08780874119965848,0.033908084004915635,0.000133055289456526,-0.06470725952134744,0.05836652645308952,0.09776102138652315,-0.11585008315052714,0.00464176653746185,0.08420142781673266,-0.14434534956355513,-0.04341934431425324,0.1901412768069333
PKM,0.07239298190548572,-0.0923733783969301,-0.06834437709395345,-0.0031106776681913907,-0.13297979530369913,-0.041716002028799395,-0.06606393191374081,-0.05034914511133182,-0.049815970288983234,-0.07008112006123983,-0.06406037725924535,-0.2100968806993093,0.01636923497516665,-0.048055871608051595,0.008660705009402999,-0.2839069354787109,-0.10499115158936692,-0.07155428202777418,-0.10837378844401614,-0.11529783853012147,-0.16330712894511745,-0.09948310765536637,-0.004167648936798982,-0.10293991905908233,-0.14454420535599927,-0.017650630987663958
TNF,,0.12156043850094002,0.05221836974525415,-0.022977396183518774,,0.02148293491946898,0.04168097780339306,-0.0359064674486737,-0.03939369727282333,0.11822986863695084,-0.014036003509281107,0.13337800259068652,0.0041477208560564,0.03843973087983944,0.020706848760008764,0.017078841716136304,0.018763671405856195,-0.018696917214423483,0.03956970645972106,-0.021194702976523455,,,,0.03900410433006832,0.13121633370561606,0.12409226145125674
GNAS,-0.1526757946917317,0.14848975509568468,-0.1704338636752936,-0.010122907839805942,-0.005384993988380927,-0.058135208981113524,0.06355949200146477,-0.14214233099315995,-0.005528310684787126,-0.05488574616272572,-0.0675189036077038,-0.3630605874934378,-0.011728834135686074,-0.049838570102331906,0.07807963915285075,-0.12142444348811537,0.03789288160257123,0.028353947485316087,-0.09289874186233857,-0.04492771722573828,-0.24821756150813362,-0.12689453132514242,-0.15386967154617323,-0.049123468585706896,0.10245192315872231,-0.0794652805231834
BMP8B,0.04779070103529151,-0.036161605662448186,0.04887008820896531,0.019805940569967217,0.00026021936349672774,0.030527833828518567,0.008202853164478167,0.09454530434368058,-0.02232082946047954,0.044593443054222755,0.06493107702356503,0.2016191402460562,0.029942435838386534,0.022638666256452274,0.16620478846832956,-0.08133739865507349,-0.020699621120300764,0.0224710257890473,0.020494761189747808,0.00339088479951939,-0.002048586280897503,0.00047243349677801875,0.008859090296076812,0.35212908313179797,0.0902031524576127,0.045390367176991235
LIPH,,-0.02919035554299344,0.01609450206603877,,0.004367995073836869,0.025993084439817283,,,,-0.01824486386576302,,,,,,0.03004099019326443,,,-0.008058188542863087,0.037764917200302936,,0.06464667608779516,,-0.02120928370734157,0.01737158938716834,
CCL28,,-0.031279696836148965,-0.03949841749350743,,,,,-0.011470890769354562,,0.06001377472886465,0.021317237062718486,0.01900458383570623,,0.02001223458178959,,-0.08415368979074497,,,,,0.0059146509863742145,,,0.03928502024596292,-0.032067812456590745,
PTPN11,-0.07197939501849941,0.031882088178817554,-0.0408582766523695,0.021048110137381643,0.011040005651808762,-0.06224118394942,0.036119727097418716,0.03354214333345323,0.056783009716457056,0.03424562459758791,-0.02563075988400472,0.08117142449564792,0.04441332047050082,0.034824036590516694,-0.005777945687130442,-0.03074063870853877,0.0003640693903554701,0.06303944583539178,-0.048954710912078446,-0.04957274358212624,0.08173583330276464,-0.02774502665229762,-0.031174459464340762,-0.07598849791376433,0.005623176655236547,0.015578926646098761
ADAM12,0.06818271395935059,0.037151712135790514,0.200512648071007,-0.05214033776404069,-0.021785527450251523,0.04244928131359837,0.0700585873962224,0.03024403344667162,-0.008957561831113394,-0.035308086792469315,-0.020176497346468415,0.06273265217892984,0.07629014184494545,0.02615521612539951,0.0010479828612302553,0.09688064702867946,0.10076577673602857,0.011771807832873255,0.12075706789693431,0.16740724368775278,-0.14290506343751663,0.12561826652452168,-0.07741654639728687,0.37582309544800413,0.20816462247316064,
EPO,,0.004861402856911038,0.0042970916383509175,,,-0.06414922130441632,0.020161734757234786,,,-0.011390308810108905,,,-0.07693784169378033,-0.007056984775645448,,,0.12491625151718365,-0.0321494669717082,-0.03585186833450192,0.05330078159285343,,0.08309411076602703,,0.002236551253865952,,
EDN3,0.040816824295294846,0.014207441636592807,0.03072650744950902,0.020673607726482798,-0.0354568130387522,-0.043794834218879315,0.0017550296667700755,-0.0527081686574591,0.05436331548840931,-0.00019885846072791575,0.015747642619439773,-0.06140039319247181,,0.03675233183482827,,,,0.05576690105879426,0.016627785054842387,0.06932161162917196,-0.05630478479745452,0.043742233447598505,,0.06252715699252022,0.1350720646593909,-0.03968513297656126
CCL22,,,,-0.014977814031745374,,,,,,-0.046858623772440135,,,,,,,,,-0.02640011499894721,-0.011899868032482617,0.011105257374799766,0.012521573238191828,-0.013293338278307877,0.05324586353893164,,
CCL2,0.17063059267412817,-0.052359670936733126,0.23446168899435388,-0.042317910249931076,0.0012405691662012782,-0.010062088148232009,-0.058304583870383196,0.005164285623147659,-0.03000729204947312,0.1406191128500935,0.036767939091641916,0.29381810838582545,0.03456532589921529,0.013317282420240155,0.05991763890192952,-0.1459258360406416,0.08137215027151332,-0.10107650282398595,0.02933597533173229,0.08214731906424383,0.007864772474849298,0.028375332151968264,-0.01454800884343464,-0.05941755739288095,-0.014626164262867641,0.07025744270159597
DSCAM,-0.08503327423235099,0.03794025607106978,0.0046048886135859205,-0.06960320282362667,0.05600333433470025,-0.001458843415961171,0.01981599141997265,0.05409254205562088,-0.006381001851577585,0.02081506431374886,-0.02750476538442812,-0.10044936853782109,0.07693533592893247,0.014906684911090668,0.07037520531857853,-0.0951795032894147,-0.0189474518985645,0.02182992238771563,0.04044131255896353,0.05699472684282204,0.12422157164307324,-0.009659039053529059,0.053380889207936065,-0.06806315637985898,0.10451327469279054,0.03720371681533284
GPHA2,,,0.06363564747852173,,,,,,,,,,,,,,,,,,,,,,,
ANG,-0.05985316385435077,-0.11551916822918955,-0.03264110511576514,0.049416306046633135,-0.03371122554958058,0.021599538353257463,0.027165680456876368,-0.0033926720314934643,-0.007693496571380849,0.007943606103106855,0.015656583183840007,0.10075214456190179,0.045292726362964775,-0.02681952844348172,0.059379975949393766,-0.10628121900843933,-0.021600031274879278,-0.11627814278660302,-0.006357103016447925,-0.03544077831066305,0.028400868755846635,-0.02127259457275147,0.05800812808839813,-0.010056630407772429,0.014918082759670529,
FBLN2,-0.06599730925097186,0.17035664848979334,0.12940110384660267,-0.019318239038517374,0.08881165283970723,0.02369542946503445,0.010706188792278836,-0.06257607476927886,-0.026379328642838172,-0.015172482910253252,0.04121651433709664,0.051895714069658795,-0.0041835224869223595,0.11359296193651364,-0.05672349899346532,-0.025253908233735953,,0.08272305353088581,0.09241168974429655,0.149040248428242,-0.0920082773271483,0.17322534361157668,-0.018860752458316695,0.13907537070635695,0.1288561385313077,0.03308649793339269
VTN,,-0.040493447431145434,0.019605998903212955,,-0.03506873716547135,0.01094117001233994,0.01174619842828479,0.043899717629495884,0.018165423528866447,0.04188783372747403,0.03155107119074149,,,0.022779389541587255,0.012750132654824381,-0.006215374488453107,0.026946564662422793,,-0.02730360532356855,-0.025226524663057793,,-0.06553093118909492,,0.04081612941652914,0.021149632939664296,
VEGFA,-0.05058780427129393,-0.18544844239456118,-0.2295431708664267,-0.02542204360125327,-0.1015695549159921,-0.017760432406234063,-0.09916103223164016,0.019005657628334,-0.08701845318436863,-0.044037141130171514,-0.02347516160641263,-0.04170195319697632,-0.023148322172960426,-0.03503864752233693,0.027318525683245193,-0.2881391625783408,-0.17123219007963084,-0.09124019585034784,-0.1766618906789619,-0.19479431253093316,-0.0990824234639806,-0.12177304197884753,0.0994983696504996,-0.27181266528361503,-0.16088158158762955,0.018519002450182676
F10,,,,0.019744752134372677,,,-0.00556759890521448,0.00785765867451122,0.03455165442028558,0.04935401790605299,-0.037003660770056505,0.0647034178724634,0.03159329677149959,,0.0457330193029109,,-0.004037292290653757,,,-0.024757450937807467,-0.003056160581937533,0.13449085318666482,0.03597452595526455,-0.016453908214072385,0.07697155632086079,
SERPINA1,0.118928476899233,-0.012635002246827298,0.10149673227448194,-0.025263912506716606,0.01344521552500111,0.02115608795935428,-0.0331700634946284,0.01484262249935177,0.03851407299905231,0.027255473615529963,-0.007734151881122005,0.27744662666902725,0.050755662913623135,0.04304256839604453,0.006639497192602949,-0.1946478546358397,-0.022518457924993792,-0.014583531442622668,-0.0024515595507246715,0.0017780585245824564,-0.07678217656607202,0.05204058624468302,0.07272263335229132,0.15470542019624908,-0.019852354898196974,0.028862324517139683
VWF,-0.14048244753499212,0.12747472156577117,0.32713827041394705,0.0077994292218902155,0.0447995305037831,0.0603836360370623,0.06159504174391272,0.05322455364611597,0.02072996507883379,0.0288021627242771,0.023191696150424063,0.07883186305244876,0.04117150539174289,0.07352992289481074,0.14687811522158822,0.3287418125690575,0.32322992594144684,0.03491094659247003,0.19358880448237034,0.20326874975090453,-0.1620660627108751,0.2584771998774383,0.04639937355890027,0.4097470690695581,0.27144866011912566,0.010222603551177543
GDNF,,,-0.03174348885998345,,0.008290771312406214,-0.012438312482137755,,0.03480015949006897,,,,,0.0035207249014364166,-0.026941650895119466,,,0.09304944640918678,0.05517211136056706,0.013770487470507865,-0.0007711023892496549,,0.0027769162676236927,,,,-0.06209938550021446
VASP,0.02953107384679522,0.013524131280125098,0.2154019061769283,0.008014548696388978,0.05052035657034616,-0.03142612791402848,0.03749783610879119,0.08045598408386002,0.06760379209580532,0.01644616081155139,0.04304386666311635,0.12231687123333888,0.024285613217858243,0.047016710005009635,0.2326885580790462,0.12329337169385958,0.08649957010400885,0.004371714162933929,0.07390033488322201,0.08458274384540172,-0.11196987624175275,0.06773672242552482,0.150899366590957,0.35831287367005055,0.07384489868458376,0.04172215273916251
ADAM15,0.016344060310069953,0.08895957883243703,0.117399659499189,-0.043120711451192326,0.0035767226146341804,-0.017475268669515855,-0.030553203223214174,0.09142160999739371,-0.016500272186544297,0.008406695360643694,0.019704959983485662,0.16651726845780693,0.004412150261516185,0.03589693110375889,0.0077595262563821205,0.08915090696081948,0.01853768275911242,0.0021954600891640895,0.025400608212612003,0.049789886474630764,0.04904759774778932,0.051566429862299194,0.15148197825728213,0.20063468613231586,0.03695225879569394,-0.007863814986412709
WNT2,,0.15589713805930444,0.0009213808014571309,,-0.014718641335506922,,0.04441934497552225,-0.01150077263436514,0.005543746740482333,,-0.0254244182740019,0.021912785664696018,,-0.049830835180217595,,0.005983803214034984,,,0.03876598895309148,-0.047612745245071,,0.041943381036348065,,0.14072887118502955,0.06748408518479641,
CALCB,,-0.038068300450806364,,-0.02834679138276756,0.011155847264695904,,-0.02975288000600742,0.04355283015193371,0.035610685412361495,,,0.00583230514666066,,,,,,,-0.01884403565813352,0.09851493921651537,,0.00811073112692701,,,0.02550848400584995,
OLFM2,0.044594021910194306,0.1078475182736209,0.014653032504482006,-0.07759521789646685,-0.03000387342023883,-0.02284516522423007,0.030241082763973224,-0.0425231890614203,-0.04009436153146831,-0.07150506398539146,0.009368891082731265,-0.034844018144683464,-0.015661020564310603,-0.031135953391283805,-0.005450837804943811,0.015075184082305454,0.07591184169472236,-0.04207708817898558,0.02474349035245453,0.021980671820867135,-0.08791004092699709,-0.02953575063957519,-0.02668060750751357,-0.10064145512754495,0.042683393758991134,0.007276901952348411
MFAP2,-0.027138705028544544,0.059492152104314105,0.27034571060540585,-0.019784719495594922,,0.006796710960607701,0.036221979649331076,0.09768056988637804,0.02497473896520976,-0.027783718945049374,0.08207800006380889,0.041946786590915976,-0.02463648162572126,0.061725289787285545,0.2160600691356096,0.36620856631678844,0.19495469022587505,-0.02848097034075905,0.12189004914556692,0.03998691666249905,-0.08159748928181243,0.1886136317250128,,0.4124966456066315,0.2313728406527103,
HLA-C,-0.2486861962105445,0.001731293042990591,0.13725831835610566,0.0019310367519696924,0.017031178807019386,0.08515404257884862,-0.016855573318020463,0.05940474114112208,-0.01146095956106168,0.10594155447545038,0.08134161251950033,0.30637060254129556,-0.0009485843203906267,0.027161159738978955,0.08799766113514101,0.06438973355039479,0.22094426516909224,-0.030215329735058992,0.02192588207967066,0.0371026136566338,-0.07274165266253035,0.06510608435969598,0.07203615245744403,0.2198859438659559,0.05935902015444682,-0.054653537515655104
THBS1,0.08625427075320531,0.12781713877950723,0.17790008040454772,0.03370757513776271,-0.03104967196407858,0.06438052967530442,-0.0663203899370092,0.10822391896506968,-0.040214961640344465,0.09715466802126731,-0.011371184345424556,0.11356741900653454,-0.030604655972314734,0.03157017701800874,0.1568533502306067,0.12126513825691991,0.0725746054914626,-0.023447095015073027,0.06727073719841004,0.0965538474253035,-0.08431745719971448,0.13730666942027678,-0.0049772506923565045,0.21019555817873645,0.1255872646866265,-0.017839482724328334
HSPA4,0.036717196712150804,0.023536319607484684,0.026463670573310272,-0.04795775582714349,0.03952695067918164,0.012606853761535522,-0.019097261176393925,-0.01515522606301838,-0.02304315671022962,0.013007527330958087,0.04056718657469145,-0.08356308421808285,-0.029630878580726112,0.08578878621567473,0.04639441797752047,0.03479239241103707,-0.0054259612540144735,0.034425572893991195,0.07539701828549329,0.036683782251371234,-0.01180669256191436,-0.027829325582442943,-0.013594775217274905,0.015921298743340164,0.10639181890761672,0.015760261217477336
LMAN1,0.02589157833015374,-0.1275523474394978,-0.030876244301500884,-0.024327868995519454,-0.039004768243705835,0.028806343560828816,-0.02453953966586979,0.012714086109468083,0.00531642020096871,0.024162450377257248,0.007775072377218808,0.09339038165692352,0.01709280108007234,0.02360632803949082,0.08657044840747612,0.049304271371369605,-0.01012683067950552,-0.05597547303037161,-0.03266651535983648,-0.08268592789281469,-0.08077104186295804,0.043119251070250136,0.07780747549482041,0.034353130560981486,-0.036706696874026515,-0.014759936631415367
LYPD3,,,0.09072666091246595,-0.014893418403433079,-0.04121713911013883,-0.02346760459760489,0.044663361778133064,0.042754658876534034,-0.021772760660472713,0.026788586197343044,-0.002887221906600401,-0.007210405786544884,-0.016368941360313704,,0.1907919577166074,0.02135774677472257,0.036588761876948095,0.0073205384101229865,0.04808659104381735,-0.00362539294113323,,-0.00495053261121209,,0.2322227151845419,0.058708311876868834,
APOE,-0.014479763290815607,0.18703912553561447,0.011712329365859152,0.07963474189780026,0.027998741898834577,-0.028433111203033597,0.02917806314667192,0.04729020980160982,0.008346885246710062,0.019050105174871143,0.0032431460585521923,0.345312007057604,0.028516113719857007,0.050017170913080715,-0.05845415275927478,-0.059847760203996736,-0.1406289731501808,0.013740499953501089,0.0549403864079009,-0.0013332202021220105,-0.24138795854747,0.02351243021397836,0.20407949542748582,-0.06667777131743284,0.07938758161419789,0.11351063551940926
SOSTDC1,-0.04196911208198338,-0.019421035231779245,-0.006002559935520961,,,,-0.020419868973282844,-0.02251778723520926,-0.06222297652897987,-0.05553818452900168,-0.03579814426717804,-0.11783998613693815,,-0.05978233925017338,,,,,0.06066901669500297,0.0421396906135064,,-0.01720505538471885,,0.004916674639832889,0.05969977939497039,0.02495893550538361
ANXA1,0.107445157722706,-0.16282833512538547,0.17080686550293409,-0.02880242441357232,-0.07215449098618157,0.0007527022122550741,-0.07789237621338804,0.050190523253978485,-0.01110831960489739,0.02097381401587261,0.06294181986161107,0.2844013237075363,0.01808360661583987,-0.009869454045074326,0.10633102654415263,0.15917032171709422,0.05089240391942607,-0.07882143277472275,-0.00317291991818329,0.033014400376077814,-0.11057132313538559,0.05217118717605472,0.05193359168644781,-0.1735706590390106,-0.0482044085310001,0.045829673838695094
WNT2B,0.058010863239147344,-0.007397148153780748,0.045121068946707456,-0.01401928515970055,0.10480660174305471,-0.041916766088374344,5.375640106851841e-05,-0.03407895938907164,0.030756591567606795,0.03760816612371672,0.03263589970500291,-0.04142566832465712,0.01659250554573411,0.0006104272626017204,0.005469591877588839,-0.034026931109977065,-0.035005679770429524,-0.04021092213652533,0.10025645831242565,0.037907667301751345,0.015653864249856167,0.02750424333434987,0.1329342635129583,0.015567156254101197,0.036739605360910345,0.021830331294626016
AMH,,-0.037937768175346144,-0.011232107276339198,0.010845372108676211,0.00042161358868660374,-0.008020050126496566,-0.04330979222387895,0.0787584441681513,-0.0009553026281420258,-0.045620140371791476,0.009919042956451908,,-0.015246205143196209,0.059898617895557046,,,-0.026732771035076524,-0.04238103822383617,0.008966377857701302,0.07203942132243026,-0.003731193109437956,-0.0270487559204339,,-0.03214732954474209,0.04082149253813563,
GDF10,,0.06366310765516991,0.014849079899854779,0.04737625095128061,,,0.04409735660892348,0.008965926717688302,-0.06177914112743357,0.04729140989030052,-0.023577246681095936,-0.06615155545272117,,-0.019586300162968757,0.03903601103765292,0.019711354745674783,0.03801709736193938,,-0.0015236635834081072,0.04672027334490411,0.09737819278983248,0.037376267887598576,0.05539889906437291,0.1154183893970224,0.06582806736504335,-0.041186652775770924
EFNB3,-0.023893124964643648,0.03771988885103269,-0.002120193290316379,0.03589109161228372,-0.00032321178045951126,-0.07234865178937415,0.009590059822882292,-0.01054122621263863,-0.012786812594876764,0.026274821676379626,-0.009975928945073919,-0.2303357494854992,0.019349292796037657,0.029204719372770978,0.1745571239875783,0.09738622426100585,0.02465804513315291,-0.015068389814959096,0.06712066572835382,0.04849028812567444,-0.09331558804523722,-0.05499712480113267,-0.03839836090913193,0.03655626510086556,0.08946729233661843,-0.020975646682609993
LTB,-0.02012730725858328,0.06968369785902101,-0.018866414713419957,0.05250397702415221,,0.04862571789719934,0.037677904096833637,0.043704087700405236,0.02963368866173049,0.017886894603977757,0.11099348012413539,0.09498421942874007,0.003691339278096602,0.01697179516586159,0.07193815473288828,0.09517811231802129,0.08372301972937626,0.03275119374368709,0.045618597162432446,0.08557173800229889,-0.06908796444497131,-0.02305364878984633,,0.27133660348016747,0.08319115720422737,-0.03891833148463003
ANGPT2,-0.011908799491543196,0.10870580987705568,0.2921173297365957,-0.024873449928831188,-0.012743560994635549,0.10574740354288223,0.05262200982305301,0.03298064620883874,0.028138885098735442,0.020660439752573735,-0.02470396495006751,0.14073979063326192,0.03524788014534221,0.15258476988901745,0.2608387082583904,0.43575965810601736,0.2805067291948327,0.049210325279237625,0.17208705010529204,0.14028705497167518,-0.14821754846558535,0.21593389462622176,0.13219070030785665,0.362973846499034,0.28223257558437753,-0.0012988673154621438
NRTN,,,,,,,,,,,,,,,,,,0.04992345330370542,,,0.03727350446229367,0.06308844906751968,,,,-0.023887109386969994
ADAM17,-0.06669700423160511,-0.004854632464139574,0.0797382908545132,-0.0042721776206758036,-0.006967379596634508,0.02097101913642024,0.003271629247218528,0.08870691215781484,0.03576151133815148,0.002352988729865566,0.06872921951694995,0.08585578341879094,0.0414847276019161,0.023696356378995066,0.07892615308130206,0.1083961187858768,0.03535460600468576,-0.03782102241584695,-0.05403343852592978,0.008737166027275537,-0.0751615478524009,-0.0014066672423144054,0.11638387449962079,0.09791682589943201,-0.025666607171378687,-0.03632557020538609
LRPAP1,-0.14278529907987253,0.03520143079121747,0.02591500235616373,-0.0016057872419363507,0.03294073680691873,-0.03468478355146967,0.03528546861340009,-0.06658208025955017,-0.04071641618167913,-0.014056985519562054,-0.04054926131004824,-0.037119835861213854,-0.03647567160583483,-0.08673904515429237,0.032490077361491496,0.043332523566407447,0.023311405278609164,-0.02037530001655152,0.07653602281260538,0.1165512693942618,-0.10707314194250935,-0.015576702745966902,0.11286999179420701,-0.05146950524040635,0.007960311359494876,0.019275953061326786
NID1,-0.15780122453761614,0.09369115136633296,0.3030295892971585,0.003840594640831057,0.08581315312498199,0.052054862412512136,0.08265068618556567,0.08357186694006752,0.05238664140297671,0.045913625615468905,0.038549250138397925,0.117689417605176,0.03732622242470794,0.11901222180336198,0.3460381075491893,0.43237092045555625,0.21731502677269532,0.029376629034072458,0.14833983426217975,0.09798151059341367,-0.17207794681234065,0.23667428526819698,0.019456331339277762,0.43828318805079247,0.282634505148246,0.046687721901119465
