,MGH258,UKF243,UKF248,UKF251,UKF255,UKF259,UKF260,UKF266,UKF269,UKF275,UKF296,UKF304,UKF313,UKF334,ZH1007inf,ZH1007nec,ZH1019T1,ZH1019inf,ZH8811Abulk,ZH8811Bbulk,ZH8812bulk,ZH881T1,ZH881inf,ZH916T1,ZH916bulk,ZH916inf
IGFL3,,,,,,,,,0.07226572973166481,,,,,,,,,,,,-0.0095513301010708,,,0.030985947733663585,,
BMP1,0.09933571521411726,-0.06543941600434476,0.15970650218047663,-0.057259103679050946,0.03629670747820518,0.008800353549260708,0.09401533800107922,0.10356937758439196,0.2652432365133972,0.06316805111093106,-0.02026905096664469,-0.0008511309658595977,0.05796014672297456,0.14043011841520395,0.08860929830734875,0.09552180084860118,0.06234716000327143,0.0765947673631843,0.14471202934412414,0.13707586307962477,0.05612672047091877,0.0848433893828333,0.043105752921140654,0.1743893321492298,0.1475535499107152,0.002646860140336818
NDP,0.04541971530729518,0.03833947451801559,0.0403460780385596,0.01738938323805528,-0.015050781759869111,0.0030899875547315153,-0.04482292577459918,-0.004856936697711945,0.04250267269071416,-0.017992226961621765,0.007762534830098736,0.07688029879832736,0.11642490044766503,0.048789991145261766,0.03117991375255311,0.11559100340724861,0.00838202988858383,0.01956017586857366,0.06674284012511114,0.14107747891460048,-0.015731469613730883,-0.008267481397176629,0.02116538297683644,0.11967520862239313,-0.06841746419442221,0.20347038872438103
TNFSF18,0.026865440025700935,0.010840038373431,0.03433195072838026,0.00234757237455495,,,,-0.010440961522225702,0.10240794884208552,-0.01889845591221777,,,,,0.05349374552619911,,-0.049803208007658674,,,,0.03467128516627765,,-0.013933519275335106,0.03806870268740639,0.0372634942091696,
IL36G,,,,,,,,,,,,,,-0.03479014892083419,,,,,,,,,,,,
RTN4,0.052688811299053354,0.025691261161161032,-0.006346077581163801,-0.034271779345668725,0.12027652608217484,-0.02412678666011876,-0.05263182797045462,-0.13575341971350885,-0.3375398382533018,0.002113858841189505,-0.06082873070720235,-0.05997898118156199,0.058649765175687374,-0.06922003218571908,-0.0030643747864764035,0.08153861851699191,0.1143809884781084,-0.006374555044196841,0.005255601854243381,-0.09115102168196482,-0.03039663178208845,0.023634909870650773,-0.03820433632043157,-0.04684817841854695,-0.02521570418711056,-0.08958349545348825
HEBP1,0.001644356788985358,0.07583627414213905,0.011529755860911182,0.02252821235463126,-0.013445254884315519,0.01542871673033814,-0.007826317968616655,0.08287776098891789,0.11963595839580539,-0.008408644069195111,0.0475842403097324,0.11127476204394926,0.004684300390451363,0.036441708263079874,0.002820340469549452,-0.039676117262411194,0.07974523699746675,0.06422371209135724,0.005626978289186353,0.07456773353932707,-0.02765038530256388,0.0012629809423351304,0.007272201382100692,0.1012002867313115,-0.06256051383701283,0.0046229221507150114
WNT7B,0.06400747129118521,-0.06800786022062415,-0.005689223355601687,-0.03438773740419928,-0.02525142133259147,0.0162759550637809,-0.011083206390676843,-0.02295477192793844,-0.1769747333977822,0.022641171128265292,-0.027731107402213427,,-0.008501481617089851,-0.04930560705055009,0.032907891052065985,0.022545398270346025,,0.016718553227916887,0.025180533187406907,-0.004488567746293154,-0.08511624396453069,-0.049756598597669656,0.06846438301085415,0.03192980867123625,0.005557211453873358,-0.06376619365836997
PTMA,0.05014477906321569,-0.0021714982753342255,0.03974270547991628,-0.04905546598490344,-0.013216295569970803,-0.0423509128379326,0.031214945123461103,0.1676514501460113,-0.09782914806132487,-0.03872050096222376,-0.06338742010454372,0.13209358085601827,0.08718121580034689,0.19047102971079646,0.0015723513793124988,-0.15587040266089877,-0.07471906530165526,-0.10374597443609583,-0.13881550569456705,-0.13613756961320653,0.010697178847735422,-0.03882161830175735,0.06278911559323673,-0.04601558999368563,0.14530515072087985,0.05521354961601385
FASLG,0.026008222634631196,,,,,,,,,,,,,,,,,,,,,,,0.0305848245653945,,
CEACAM1,0.044944269280180825,,-0.005574966214650626,0.02055106806535834,,0.03175637751251441,0.0409851094522398,,0.05460596588411165,0.04185852925398729,,,,,,0.09575294814432164,0.06151157537322125,-0.013242289393086165,-0.007729085408548406,-0.027771946400576567,0.046129702101471,0.049041675146767334,,0.0614161656425905,,
PDAP1,0.058226236614922516,-0.002099514102621152,-0.0009647971735082565,0.026152550975522725,-0.061087958753674274,-0.037666811955973344,0.009666850207289567,0.04174510453323833,0.19789889768233154,0.05667085704383212,0.021997588179069275,-0.01167073080804853,0.12414773707099322,0.043484905420472834,0.03848459691934293,-0.07186434164727597,-0.004574784959157474,0.034523564798023466,-0.04757535208811922,-0.04752664457015254,0.042389465351836624,0.004762200090051702,-0.0685471144523617,-0.008256321425465018,0.030468787216345068,0.05810460593789486
QDPR,0.03613432696450847,0.06701601619384066,-0.07872861061631153,0.035449843994542186,-0.018806771840710317,0.039599220857921315,-0.016626590948429158,-0.1025636297289213,-0.15103151323255057,-0.03674117722029768,-0.01676174960219252,0.19776771081792816,0.13471578571784396,0.07772434365009419,-0.04607257174742522,0.06731772806395667,-0.021678830161815946,-0.04046781164800676,-0.014831480450515078,-0.012343967917093975,-0.003753079820479878,-0.06510012718506351,-0.04446051546631683,0.0263893544713555,-0.05713801237658479,0.12691272461145525
POMC,0.09857775105113652,0.043068054668285324,0.03766342201584706,-0.026987125194267336,,0.014414351721625696,0.06085661731735401,-0.03894556611131958,0.009073524963648251,-0.05290548589244237,0.005473943397174019,0.03244075400788905,0.07145457052559295,-0.005958023281753361,0.03871532131005447,-0.0009345079524666322,-0.014972720334666817,0.001728270741372455,-0.010774465286782896,0.07753334315853597,0.15228722686704657,0.05656063549245319,,0.12571020087858503,0.06886173705818756,-0.009094022873191075
CCL18,,-0.009074565988582672,0.026399617978438258,,,,,,,,,0.0333701309394283,0.05879423489914005,,,-0.04078517459978756,,-0.05641986329628233,0.1304696251020732,0.12241514402248514,,-0.026435917570954648,,,,
CCL17,,,,,,0.044499995335323575,,,,0.04835661459960886,-0.017486983812174072,,,-0.04253738818786088,,,,,-0.054920819098873,0.07376882688454359,0.04193191103274381,,,0.06779929901877937,,
VEGFD,,0.0294330470747533,0.0617855126703671,-0.0016115674578805487,,0.002598518948380971,-0.013814386042403171,,0.05820020181866658,-0.006978735648877257,-0.0013967121732432794,0.03709069961973283,0.010745882381818034,-0.0013434969231022236,,-0.043391920489929105,0.15763429131199513,,,0.0648587170929138,-0.02015580195648486,,,,,
TNFSF13,,,0.07331469899446531,,,0.040944489623415195,,0.004795682975403141,,,,,,,,,,,0.04246233216727664,0.057885202322952925,0.10808191885443762,-0.027887377212736313,,0.03686114846766867,0.05305360848271398,
WNT5A,-0.018576259556839444,-0.02172870533194252,0.03742563474408267,0.035461231357456456,0.023606898961544092,0.09831230990391575,0.021937983502742998,0.15111062015127788,0.258425857997977,0.009504163624761381,0.02680358506726643,-0.03073212951557146,0.014805517151581142,0.09470319850909634,0.10635476077626355,-0.04452511411584066,0.06586174710476737,0.03960255295948666,0.0687007432831293,0.06706590650400149,-0.0496751259667584,0.09906161825334368,-0.014077219302311027,0.07241886403834946,0.12593110435059893,-0.06876866899898366
CXCL8,,0.01183806547040495,0.02602619067334392,-0.005675714414284771,-0.1164315140538693,0.00781299658689768,0.035661861917679526,0.032131846591746095,0.13310868314363708,-0.03722928259887593,-0.023445528704195407,-0.04020120185339128,0.025706228686146717,0.05473682880730672,,-0.023661723386916116,0.031125078936015852,-0.004934119614252342,-0.024261478747944747,0.0011323630598762003,0.05243306252357193,-0.036096933260357504,-0.012382488885523811,-0.042516871600501924,0.03660706473698964,-0.08460161844768281
GRN,-0.04095781481576848,0.1244960575169948,0.16368702984898414,0.04093087806397227,0.09009761608781804,0.06304747406624414,0.049732044712498986,0.042204724937038134,0.2683762657218955,0.06156761883505418,-0.0014583740469221124,0.08921411430434599,-0.01880804128175016,-0.02622547259024729,0.0887224385125534,0.11361866247518033,0.05409701135345767,0.15169664623584678,0.12708146924318306,0.11962381727431251,0.04082411127765447,0.036395188979172474,0.03772546187691582,0.11055375887798743,0.11271252147819169,-0.011181114107536985
MIA,-0.009957811386361367,0.00926990935194241,0.07403068145840504,-0.02606113209331916,-0.01569261202079219,-0.042515436350448986,0.021581061756937026,0.013233914903808224,0.09666836007449407,0.027179390155965197,0.06121894336480896,,0.0495349461486562,-0.03748109414134351,0.05440339237140858,0.024746410434758264,-0.006302968442339104,0.1727921328446091,0.09439721061513161,0.08527598073594743,-0.000699515249192542,-0.055391903613270385,,0.10044868219195789,0.03880436434533971,
COL4A4,0.03457861759373653,-0.07117108008121206,0.061138488368799065,0.013044662938138395,0.02484508122427773,-0.02132689198732348,0.03408850544922928,0.03867608194457775,-0.0011048274551214293,-0.007989058079474537,0.021513467165415984,,,-0.000963491657992431,,,0.08658703249863504,0.10511372146297637,0.08023041942079083,0.006822852553865448,0.05183168228131984,0.0479004099400928,,0.03146113780507445,0.017594262589879544,
TAC1,-0.017239781760275776,-0.047455849556113684,-0.0005810297289852905,-0.05686489415690428,-0.04056132089783291,0.005095153009768166,-0.01920333956470203,-0.08527598529724752,-0.2294220462153835,-0.04753355586341914,0.035917390581411184,-0.10404147212735951,,-0.0963490130251844,,,,,,,,0.024266034378487882,0.021421947631843106,0.04471265137585082,-0.045493678637972226,0.0035834974583141372
RARRES2,0.034416073460909906,-0.05610744247168965,0.003477431245183749,-0.0008909790723185601,-0.002268637115711272,0.010400487521978023,0.06403350852234457,0.053180748253799294,0.28854689604064704,-0.041418604007177666,0.019487623270718207,0.03594556115824359,0.006601219557999169,0.07166894570359894,-0.06930419545204103,0.12090643448225784,-0.10773671532065673,0.04200502103358611,0.05888666206117275,0.10050466841262881,-0.062091604497552653,-0.03555432401819778,0.025655762909140855,0.05436369745735297,-0.017137686096481815,0.050351189929410595
FGF7,0.06956387575559282,0.07512636721004663,,0.08749471032197724,-0.0017178728492314613,-0.009700886197996339,0.03170634078921904,0.040857345545496956,0.04683491614624733,0.01772795189906172,0.034560045555912446,0.014764058656553643,0.06930418942311636,0.05498077244039507,-0.005485240751027734,0.10974560537956508,0.08320524408887568,0.02605538589964161,0.0007049882671295115,0.028723973948204553,0.0010698595918837632,-0.053582296807945906,-0.02286167130438121,0.09631578205281734,0.07055577799164409,-0.014470077799075016
EFNA2,,,,,,,,,,,,,,,,,,,,-0.06535830181066979,,,,,,
HBEGF,-0.005658034534446492,0.05473499054886983,0.14290628847948328,-0.038600425851138084,-0.05310491657466006,0.0035403333388859285,0.05270402680416533,0.07038580109159129,0.13626065629643538,0.0016380493591241902,0.020314656586134117,0.1148859327873327,0.1580436071062744,0.027518029835469388,0.09378291003971352,-0.045163027790206416,0.027857067776125694,0.10323894859803615,-0.0001569238883606603,0.0708562966553433,-0.032701593433949745,0.0514262421420666,-0.024787246408335063,0.022934335107304277,0.1803990771037385,0.09587694996013546
CSF3,,0.01616130878452105,,,-0.05756528380028893,-0.019629875114543515,-0.0006067398864690201,,0.0652526885289244,,,,0.06998458272722179,,,,,,0.04292722718257845,0.08870428574471925,,-0.01780323194865009,0.00095918204545285,-0.0029087015750506374,0.06356551122251636,
PI3,,0.03214428100179436,-0.0013741480624917056,,-0.06442692173804673,-0.046887342583292385,0.01062649871531427,,0.09190374326653189,,,,,,,0.06875472831995848,,,0.03738260194158163,0.02459652329061288,0.05017500935751652,-0.07599870174788104,,-0.12544529024184373,-0.012687537589861861,
PCSK1N,-0.01805708953610054,-0.04902480139095021,-0.023523617778910804,-0.01394350185296389,0.08883606185228944,-0.03222100591020467,-0.005787244630748901,-0.023293491856429906,-0.16789944975851775,0.02663721344325132,-0.00843049281387316,-0.11134509792412085,0.030064996378192134,-0.06961986186239616,0.019098268732879623,0.01816929767433317,0.020260013422256373,0.003026744790410139,0.011001086894810353,-0.04099289012344165,0.011360206217663446,0.022569510621108003,-0.08729584392077293,0.12187663479059048,-0.08448145675503291,-0.002193686772273313
NTS,,,,,,,0.005110612505567226,-0.028784493460439493,0.04262053686752231,0.021581189953902565,-0.02444144658166192,-0.0021236211300932973,,,,,,,-0.08415601000252729,-0.017184893083421558,,-0.007011356677759144,,0.010758231476543296,,
SFRP1,0.14630099242168806,-0.014665001082801579,0.07461175674293379,0.015029095796629654,,-0.010698228821099345,0.02121436360017413,0.1426333504612256,0.04419692473989909,0.06377872300458458,-0.010020022172424769,-0.019000787229296615,0.012439935364950059,-0.012097589239586246,0.002268743939489951,0.053061732631319504,0.037865090310992666,0.011116871321753959,0.11220470505104699,0.04669802335070436,0.03417486723734809,0.005093706998603616,-0.025338031244999563,-0.019721713930022276,0.0857359099583538,0.07849389548368932
CXCL13,,,,0.005910765804767806,-0.057559835443253264,,-0.054133458349970985,,,,,,0.07411298465163223,,,,,,0.01833110118891249,0.11345431596811419,,0.0029062348176365966,,,0.07174532426466969,
MICA,0.014757512771843569,-0.06894639513860931,0.079775885517745,0.0028254722902889403,0.017779788464651156,0.03110072613792153,0.01795756123110904,0.053171550253980286,0.15668597128573486,-0.018570644951872498,0.03346806230109994,0.12399015343742006,0.03361567376122588,0.06384052692048926,0.062427763018667946,-0.06657827244815455,-0.013578667356942343,-0.030923905429152063,0.0889240122021653,0.108631603577426,0.06970606017302027,0.12799010813250797,0.01861855133161888,0.1895017137194261,0.05314042401275391,0.12030789366819188
TG,-0.01785494382562912,-0.0033990650782473333,0.0171289709577154,0.030577271189254674,,0.023380896261926902,-0.011474271501704984,-0.033224893427933916,-0.019116821729166893,0.006948900184600188,-0.024839650048884776,,0.12055452564717395,0.048389434429187694,0.011480037751763364,0.051842843420127904,0.05956586469700006,0.016172092240878483,0.05137078716553758,-0.019693431650093293,,-0.013822775657091772,,0.06413977916965724,0.03455750821218018,
ADA,0.01392550242991909,-0.005710588797991395,0.14048351173657458,0.02747726454370724,0.007613075622539103,0.05465677240536554,0.033713947021669986,0.11503252203606065,0.23422281779382093,0.023374130790148478,0.04154685965388978,0.12585518131431117,0.021443863880671,0.05885758093525799,0.00123078414808334,0.08145570543677377,-0.01861765812894333,0.10277044363010031,0.09205100502353758,0.05409191495151469,0.049986205241785736,0.06155978601264471,-0.008442586591101793,0.17770848716025314,0.12440927662286225,-0.003780207312604544
LAMC3,-0.03208141609264684,0.0486648513707987,0.2312859305928026,0.0020081550558858534,0.05224419973208738,0.020637739004979457,-0.018410267666505768,0.1773407865752326,0.22560603041605656,-0.011695957690075396,0.012611232927028008,0.08328526760018316,0.012620501734930473,-0.05571510045977297,0.054446299845914044,-0.03985863755278438,0.00680421935635716,0.08067069743571956,0.08055912461503606,0.09214447355600343,0.04268185597967493,0.1754519158607093,0.0726131528775357,0.19413313682648958,0.15198834737245262,-0.08731083908964755
CCL7,,,0.021543450127323206,,,0.019395428769205757,0.02833073183445636,,,,,,,,,,,,0.00871361178195671,,,,,-0.024395196421884046,0.02589057956015615,
NGF,,-0.029848063052726848,0.04429511148558038,,,-0.024060296663824518,-0.03655552785589297,0.07811745788749949,,,,-0.012012531349258984,0.052551413223243686,,,,-0.004946601318025474,-0.06580126985751518,0.025046443239150718,0.010135366038698024,,0.0781099026932905,,0.09414898260813043,0.0686205874192753,
TNFSF15,,-0.012680777663640801,,,,0.019566842369760133,0.08809286604424701,0.0023327321324515047,,,,,0.044103221508195754,,-0.03632522199663045,,-0.045352035610209035,0.1355926878981287,-0.02718639342453359,,,0.022247354718106783,,0.11302918587170728,0.14593385146718704,
HMGB1,0.051597536628440646,0.04986465042114422,-0.0604096845950944,0.02850125904035268,0.021472484063223517,-0.05313543438395625,0.015156088675022005,0.0378039638873246,0.23895800530644568,-0.03360017574044646,-0.047419953203275036,0.03974655216233516,0.11676900461735056,0.031112451611832733,-0.02290318671137572,-0.06819562721808027,-0.08887952370732813,0.014597691465749406,0.0041587917321242495,-0.05359126589360343,0.01812530674459102,-0.036626469778384935,0.022227947255899643,-0.13159312877357204,0.027435696944573314,0.0365453993193756
ITGB3BP,0.14136479853493789,-0.010090729291301372,-0.0036783400032684736,-0.008760632238695058,0.016182418442999794,-0.0025012763620007187,-0.005808152265325974,0.07405030089508698,0.22438874370830436,0.039437992387553134,0.011465377780307076,0.018009377644068833,0.03575037863918807,0.09913669605709795,0.14602148376050778,0.04282900893115989,0.00593251953139729,0.09980523801228594,0.043576822102623945,0.056103050747479566,0.0019265105053898222,-0.033031249651279716,-0.048624164952044,0.10139476762862214,0.06095067196948235,-0.10766143928872875
AANAT,,0.012355073967194166,0.008419719943767898,,,0.004462242946265538,-0.011452383506904118,,-0.002333340671401392,-0.01098875806979219,0.021121105454931455,-0.006447166182127562,,-0.011798948214824974,,-0.022969983806303048,,0.013304112822149229,-0.015310823821615624,0.0029555279831844916,0.07763791732514347,,,0.020939109685514715,0.14189443883730196,
RELN,0.11702273303841518,0.04974203060536277,-0.003512192664021761,-0.03862673549548199,-0.07100094162562226,0.07529754890939874,0.025079419763871288,0.01403634892932659,-0.09426493872365514,0.005848895741796237,-0.040224907254866986,0.06402932028394163,,-0.033602087200827364,,,0.08371877816935337,,,,-0.012315123942067244,-0.0013072876934658731,-0.060492688098358297,,-0.038984462291016285,-0.016924769028639132
IL15,0.01982440222322172,-0.037296700428619045,0.019120083548649504,-0.0025713435046868516,,-0.011893156544128324,0.04562853473864201,-0.027393173870259645,0.10165326692875123,-0.006770511588318745,-0.047179531138707834,-0.02828688545010238,0.07324740488743164,-0.007067582743308038,0.02659854335762736,-0.018377967277570646,0.020930059341004736,0.05958497864218397,0.07423949714727776,0.0756044772481123,-0.034408142761292906,-0.012962352498712986,-0.007712888518093928,0.1311976014762084,0.028340287389820116,
UTS2,,,,,,,,,0.0514227525361564,,,,,,-0.003165810708702488,0.046410563724460153,,,0.020058524391254738,,,,,,,
BSG,-0.059106834890693724,-0.0446918753745425,0.03350385826072762,0.018282689490438587,0.013304773642577318,-0.05285785545233739,0.08773412350839913,0.12818492061213266,-0.05308159872125578,0.037626644641890986,-0.013591534360122436,-0.04484528404933368,-0.014237130305201634,0.05088025587535909,0.1137467761383526,0.11818019484499155,0.08033105588230045,0.00027528845591081436,0.12943761767275147,0.1488009236004298,0.04084895814930837,-0.035598180711333714,-0.04670179530765156,0.14737631960577816,0.06495055106964936,0.09072453416699511
ADAMTS3,-0.03764409556375115,0.06982968959063116,0.020808860241223928,0.016100384710544313,,0.055155511605545826,0.010749667888313743,0.07656803547799984,0.26054458791587765,-0.008743997032198754,0.0006573468727445476,0.04371928936466692,0.10000659276323577,0.03691647369296142,0.10321733813697906,0.001921334735929131,,-0.057705265223070644,0.013418758389173426,0.012646384948858499,0.06931173457340932,0.01136570109373048,-0.03643349143105992,0.12528497381951043,0.03927132456060351,
CD34,0.03706359356806781,0.052571531087039616,0.17230359076742466,0.043875850855143644,-0.01878662357682309,0.034178375340735666,-0.0003151831307868178,0.07839325633286005,0.20576483106376542,0.008376510695913796,-0.007968458352190436,0.017617187011732226,0.010477203227977726,-0.007126137354199132,0.0649408832499273,-0.021229463596991488,0.09950909917300926,0.20096499948071042,0.07189250063550168,0.11342093027354867,0.052666854707102785,0.08579096710336317,-0.011363150330894863,0.1428725493761295,0.08699909992912537,0.022780767030114696
CCL23,,,,,,,,,0.030337000844461753,,,,,,0.06912784509375024,,,,,,,,,,,
PLAT,0.0818027103444298,0.07931107842780524,0.10516593089979712,0.006490822574065777,0.10281602628777034,0.08795707376119778,0.043343571676973426,0.1270284716825322,0.24244638503499433,0.07601067418368097,0.01605063037844163,-0.010921644475317047,0.012887436101975598,0.061323065282633524,0.0708027451347521,0.07963679706932827,0.03902765504682214,0.10854888279391264,0.10094714930711698,-0.031233119977259034,0.021240312323728708,0.04579055241376039,-0.014039368781932226,0.13801401504679484,0.1095923451044274,0.17787300592202157
NTF3,,,,,,,,,,,-0.046220593412619485,,0.015877735743457053,,,,,,0.015724278332459193,-0.005357552285390476,,-0.0048351548728964204,,,,
LTA,,,,-0.012375398031916021,,0.013542106125335636,,,,0.050063724880747805,,,,0.009815740459942827,,,,,,,,,,0.09186465400629473,,
CKLF,0.046524196869176054,0.05076827954755509,0.06041515355901171,-0.03780073299196131,0.08360191548783485,-0.015671655368823957,0.02472313368372529,0.07222241120295346,0.24914684738000228,0.027386831540858286,-0.05035029880156001,0.10812416996387766,0.08578748182069829,0.05451587592603584,0.02691306891310561,0.027724100223269207,0.04511730078382804,0.09745289491491604,0.10214269699082437,-0.01876117704558174,-0.02580081923561683,0.05879821406543661,0.09487421791467086,0.13272181524094476,-0.022325677633655495,-0.017404157923591262
APELA,,,,,,,,,,,,,0.023917038255060676,,,,,,,,,,,,,
CD24,-0.007886404989224405,-0.006548596405230542,-0.010900272950352282,-0.05953618998697231,0.07039163759457041,0.01557188997058173,0.02306846215761386,0.07160423020112208,0.05009911422139657,-0.05736815396259787,0.024377355633556873,-0.03650413148180497,0.0721419174113479,0.03465406576815802,0.04306095974185285,0.033674294261598084,-0.039771794959233144,0.012752215363485909,-0.024995284878125086,-0.06541984187921282,-0.06376202762546977,-0.007974599381816333,0.02579583630319837,0.06020798375679616,0.001567872499903367,-0.09077390288382782
HSP90AA1,-0.011138720260959637,-0.002686417362292858,-0.11416164296562373,-0.06627360931798953,-0.08461453700052228,-0.0227542676256105,-0.058584633973931405,-0.12153965503006096,-0.3115860519854333,-0.021671746640647978,-0.02091573902903666,-0.11064506429633567,-0.06483561871533379,-0.15292091310456415,-0.06204461562491198,-0.11506845464768889,0.005856060848361554,-0.07541396310001927,-0.13723249841056337,-0.09513542542298926,0.030544422660827235,-0.033656466819468954,-0.020592984111381857,-0.28685400305681974,-0.03161816399380756,0.05422499925828234
BMP4,-0.0005990260432265992,0.031303882364244265,0.05172709169407427,0.0015968712866325134,0.08854342918034466,0.009509829237170798,0.051403194467830184,0.1594933577499974,-0.015219139119157708,0.002687859268021474,0.008699245819058269,-0.015998793283988694,-0.005963114823131561,0.005550610283225304,0.11815868644380927,0.05504697897249952,-0.09495744391409827,-0.038438308495350494,0.08376465836442842,0.0539403034880547,0.12400891742989928,0.10903853984478525,,0.21689539325200513,0.0041704727892745135,
SCGB3A1,,,0.04131105574886805,,-0.00890328597330569,,0.013095417987715125,-0.014234963163643859,,,-0.02415226826517212,-0.024719660878364656,0.052435949483125494,-0.034235731625855664,-0.013176164729920174,-0.0099901465996513,-0.07996031972720632,,0.03838631577170561,0.05282632935472456,,0.05246250801048975,,0.09114563451427697,0.0121656878374843,
IGFBP4,0.10168812750072008,0.024945998585996897,0.22864476342155907,0.0008025806494090121,0.05439390860625651,0.00720207557598321,0.09732605987094739,0.10760103478427883,0.21346129431487884,0.033440481421447045,0.07222920289526509,0.043010131081547616,0.04405637622314914,0.06471710257257321,0.06035145344323061,-0.08347177743193938,0.1359870879367472,0.09882216681692486,0.11764353822842714,0.08677454778124856,0.026353445212881986,0.1161211310923777,0.12057556242853737,0.20252025367602733,0.17023297268069493,-0.044585758329125286
RSPO4,,0.08084187623885862,,0.00494003098834066,,0.0419315814202834,0.03695612692413312,,,-0.0015841550704805262,-0.024152264732356526,,,0.0028234708787671574,,,-0.034289529186655524,,,,,0.036749269017650646,,0.08415748619241953,-0.0195629279933708,
LEFTY2,0.04629506886657723,0.14557828825634161,0.09561570123523333,0.052558667218861314,0.06597011884223115,0.07134375151932634,-0.007155274029085368,0.08671449381517637,0.2024439380797113,-0.013859374408944804,-0.015675537578265793,-0.01576217886114045,-0.005563961878179892,-0.01563617415928246,0.041202304725405904,0.052091381036512265,,-0.05692895954326309,0.049083087262776076,0.045651146078870955,0.05732346961236422,0.07272084722406351,-0.01913780840262357,0.12127322231022475,0.1544611742271941,
PF4,,,-0.013332342479831664,-0.030003107113775417,,0.023984944226815914,,,,,,,,,,,,,,-0.0599054085755109,,,,0.0601229991260831,-0.0262251861176309,
ANGPTL2,0.023384712174702015,0.05808635054167867,0.10360769839205243,0.011316343727042693,0.03984483780647941,0.05717292173575935,0.07208235390111925,0.16973129992739622,0.19862652832396774,0.031058085857211565,0.03275578912261404,0.1659837231875648,-0.05601669901152523,0.15761385355760082,0.0960859240277595,0.023415913340510464,0.061399644862312135,0.04605248889827776,0.11605608295691723,0.05882712031888416,-0.010238266001213237,0.05452796987011265,0.01737128120363104,0.15737444091144276,0.12637962250407125,0.11030371067948583
LRIG2,0.047911262945902824,-0.03283338533159164,0.060952885907743,-0.021122635163394205,0.011232309109115648,0.02245279599879295,0.00363543146864614,0.06274872663044706,0.13519880985086621,0.009957447324176584,0.042304387183071106,0.027002312969939882,0.05106009203668926,0.07514380455519325,-0.024559120134805053,0.035835001155038564,-0.027038438488286933,0.0992578185930546,0.06418474636326621,0.09037003036658135,0.00628548836196087,0.022341769076790627,0.056779627364368736,0.12218514120862632,0.034716862272981555,-0.050888216688326174
ICOSLG,0.03213283188355483,0.039043195920295475,0.10802133615665069,-0.046456086243412145,0.022331044589832347,0.0524612413360133,-0.003968652819085095,0.1317042359760743,0.15772055881412453,0.015252076854351601,0.028812289207175216,0.07846779541795942,-0.02335124929607915,0.06441318899635537,0.03223521835588407,-0.0158880485828965,0.1473012722070292,0.1029835162295403,0.05922320386852645,0.062194801906659714,0.07452982851838269,-0.05511013202830494,0.02609963541441223,0.1734683421621207,0.12305333090900665,-0.00011926062223144163
WIF1,,-0.04911996213087015,-0.001430267376403528,,-0.09147802355744841,,0.07849617832376161,-0.10580903230179424,-0.21508617310141315,-0.015228331685918665,-0.012085747929938415,-0.034055016004733984,,-0.10433368559383406,,,,,,,,-0.0129588113609135,0.011895779160710013,,0.03709401112496194,0.0227910659484069
NPPC,-0.01821912409993851,0.015147092785801168,0.010554004189199002,,0.021835730094263792,-0.011727865538149277,-0.011766478375305586,-0.03311682772662189,-0.05681287803049495,-0.027148395017092923,-0.03356573740583841,-0.021242147117491353,,0.059323292635036246,0.014758246090982786,-0.04281541511853212,-0.05460412902531146,0.025214580409141,0.06395242956564606,-9.677780639836354e-05,0.03208231355449473,0.017320091515193876,-0.07073943490872407,,0.06930343996471564,-0.007618641232404396
LYZ,0.014886465643052993,-0.012485586049862697,0.08488575634372182,0.0034831231027247413,0.011171243831770636,0.02860388389258648,0.058286602502114745,0.10078811290338742,0.21737045845993663,-0.021718633404998706,0.004236004416880204,0.08052159982352314,0.17165088808477602,-0.01170279351752201,0.05859926212469643,0.11845431279540271,0.05634131260236868,0.010953773066323379,0.08571908179312539,0.01189814682189055,0.03822286157317872,0.05781586379200564,0.0453123856763606,0.10749960730924038,0.01101421056146035,-0.04950332103284313
EREG,,,,,0.02470073245600276,,0.05299851294802224,,,,,0.04881161307402651,0.051281853302794195,,,,,,0.05521073976854725,0.08244373947185876,,-0.019356650075513165,,-0.05637203302274709,0.11846181841958708,
SPTAN1,0.03252417381018202,0.024882519839322693,0.0516854056619847,-0.01836479520980747,0.055954259768221264,0.012673682400519382,0.011706640078203082,0.00881037742481107,-0.11114988287147295,0.0351928786394254,-0.00535453390275101,-0.12174102236005374,0.1391991735311231,-0.02551856904678819,0.07112080555099125,0.1723706869338315,0.07559027886087835,0.07887468785575999,0.039140059938821394,-0.020634874656593277,0.0361611844630229,0.012513241884714687,-0.05099157309575955,0.04587701974192035,-0.042795405248957176,0.017378709151498428
PTH2,,,,,,,,,,,,,,,,,,,,,,0.013717693650545652,,,,
LIPC,-0.03655694399968602,0.08905679840191756,-0.047853996597802144,-0.029245927665851896,,-0.02484534934105842,-0.049459692731112795,-0.03295573536077406,0.15699918060740536,0.011372329544347002,,0.02379661991478586,0.049302461898475695,0.05798842791386303,-0.0017780000212805358,0.12142210407247273,0.05807840604592232,0.027766799696519438,,,-0.03907608293357649,,,0.15443000290770864,-0.005240157112907588,
COL8A1,0.027886049635585487,0.1239646427746384,0.11491638636493588,0.007197615724495174,-0.005985014561882159,0.04355655437268116,0.019778673619031566,0.11445211307770904,0.13349441440446724,0.03394817193577908,0.0075754584245584615,0.03266966214672763,-0.03273535201485048,0.10781761623299581,0.04682587830259169,0.04975638374984928,0.04565284482572926,-0.03168188876917385,0.027794401495359815,0.10377647058421181,0.002655479089057852,-0.014847158252208769,0.05594597297206572,0.04837794527684955,0.054728958458135905,
GSTM2,0.0578487796705002,-0.024189552521254837,0.06119320967153269,-0.016963138080347596,0.05486128705625982,0.07531540535728845,0.01621697228233017,-0.023164617069698284,0.03971566513791393,-0.0035737322523735314,-0.04827691080085636,-0.04513712796080838,0.048149599188181645,0.0016777866193112294,0.08774268751639876,0.05425605981365394,-0.0001089102517371356,0.005412687332484656,0.04253512887095795,0.0032396502850543948,0.08845377325731955,-0.007707934238441364,-0.07579664968390772,-0.011258516465328283,0.06717802061373451,
IL4,,,,,,,,,,,,,,,,0.02478294868900306,,,,,,,,,,
SPX,0.00748896104703315,0.03332940145229544,0.06962014458895775,0.0356172902048688,,0.02975639416602627,-0.022907125834653184,0.03387959722036284,-0.07647589962200609,0.011942333220977838,0.030301993731466057,-0.04515146724971169,,-0.05729453723021789,-0.04489223153723647,,,0.018888432808963608,-0.049204451509222744,0.003121899021200285,-0.0972272458620974,-0.031209191219294906,0.03316845240909667,0.10082559211076711,-0.04766476720321479,0.023362701036186914
MFGE8,0.003415210172236548,0.020903648904403233,0.18754539591724595,-0.004276936544849072,-0.004365462804900264,0.08190509847539292,0.019478445056979047,0.10709412892963667,0.16591503908712535,0.06987202640697812,0.04803825575285503,-0.02206131670540147,0.005370335704169103,0.028965987170848844,0.12352192644857664,0.02895924273315212,0.09997231129589196,0.09710242372770626,0.05154623664343914,0.13654056819808738,0.046204189182508314,0.11218494441712316,-0.10759331629975244,0.17796541217383743,0.07772136682208064,-0.0931302923251749
TGFA,0.0221560515239824,0.041295921857181436,0.03848916337362942,0.022414732440061147,0.06649893331558308,0.049998682005169166,0.06099118851059616,0.10745746057928422,0.1705917700878612,0.07518599015791803,-0.028094828124324987,0.07906145695936953,0.09700404924587973,0.03292236530236499,0.08136285722401884,-0.06891793586232421,-0.08593406424376603,0.017915473193133937,0.09873930392494011,0.015663362781907202,-0.06442522894935783,0.039028547610738304,-0.07893217152313711,0.14802449469892662,0.07171639481504653,-0.03547569260431461
SLIT2,0.07669279312838079,-0.08765192180848957,0.09898450227212825,-0.033541499482098724,-0.04569067478271814,0.011365748056789202,0.00019822407737061056,0.04835159789643312,-0.10713242995529222,-0.015337910717841248,0.001267150773610178,-0.07244189656602741,0.015721434692545343,-0.09053237846898153,0.11525002373109955,-0.009630453493323556,0.12183575044424255,-0.024783936986868108,0.07143725025863769,0.11200165405319129,0.047224605318442296,0.025421173627936597,-0.08524169580587063,0.054784637425881084,0.09169688082694098,0.020632754505302504
PLTP,-0.04620471904568761,-0.0387134875096894,0.010878318416666513,-0.06544573099656811,0.10314823781374005,-0.03120446392446222,0.010510100785129494,0.10137585448125205,0.2833498131668014,-0.022170547706215966,0.0025042349657942026,0.10591267217846065,-0.014023709437164536,0.04933552648789191,0.04378130516660725,0.191531135076682,0.06558369696246834,-0.007018555898723068,0.10980984969358495,0.14045312595291107,0.022266943863922084,0.09116252907001378,0.019997686081144734,0.10673084798674613,0.09735396291304003,0.026274869291943115
APOD,-0.007353378458503368,0.0008180513566503671,0.04968503332619479,-0.0570359613343,0.04645257856806841,0.0020490102544936254,0.020065950251490123,0.0068678747962171325,0.20277309924178297,-0.039202696346713736,0.043343035360489605,0.26797438079294267,0.0887210987060107,0.032476464145615176,-0.10355020735282233,0.0020153417907195757,0.040407990037828016,-0.034914846647799744,0.09233821494805684,0.04313997093457794,-0.029049651467822398,0.18722750831935717,0.05831208657602351,-0.06260881239704973,0.018187465411985602,0.09260456079174448
B2M,0.10196009038613184,0.03323747348610392,0.17761503338111265,0.011052283290075082,0.12066234181144866,0.01600674997917244,0.03995575711641063,0.12766912091984634,0.3468750247073438,-0.028519205007304923,0.018619782795061827,0.08916518387093211,0.16700716696892506,0.07391038514097881,0.17897305629507657,0.09572741532046684,0.10876000410146713,0.03923181868990776,0.20209848035927577,0.160624346201121,0.07714229459433358,0.057688749699750214,0.018924486635147106,0.04719643763042827,0.1061507379852187,-0.053985607413985885
OMG,0.03913900011231935,-0.026109796096590185,-0.0004807886091575463,0.046828703245312554,-1.408446768543444e-05,0.028588450304315283,-0.05340683851758705,-0.030367684561064305,-0.043869086591188454,-0.03542805301470072,-0.048153639657647095,0.041836543248648314,0.06534146830267502,-0.07341882157836668,-0.0011185897385306608,0.09878467627408553,0.055319415943137905,-0.02363262206618529,0.019878211413070022,0.015079106381929445,0.00836868631866178,0.019258163610477257,-0.07571071638430624,0.16528241252738196,-0.008138565634301606,0.08529828399417158
CXCL3,-0.02369442682564407,0.088597861370735,0.007094791275822953,0.04606963946323059,0.005554289324944679,-0.01681880736807168,0.02780289167387804,,0.12691164269207117,0.011979499962853793,-0.025837818037897586,-0.03418531263998817,0.10386034844973961,0.07544039138332989,0.017269519766097738,-0.0021387793443558224,,,0.05644935947988458,0.11742292534981769,-0.020669684046380827,0.05543208890723098,-0.05302283252464112,0.05069404234295079,-0.035979762543596784,
CXCL10,-0.051376735521602955,0.023305852785812285,0.025563521272265854,0.0154287320483993,,0.05263904726853576,0.038928544431727094,0.041850441539618886,0.25207559616499864,0.02220888976252108,-0.039249536713411984,-0.09081570563285847,-0.02888369862102893,0.011437648935185998,-0.020521751537444257,0.047183109850204887,-0.02380649266342047,-0.06017661894856448,0.12457195666757157,0.00810412392599596,-0.04347894922489544,0.0568828078967196,,0.1617948413782307,-0.004648952428838907,
RSPO3,,,0.06324316229521092,,-0.03441417990424218,-0.0007052678731624927,-0.011109542341185004,-0.01934487414714619,-0.0823456708909445,0.002682094243592168,-0.01311940305026893,-0.10406500736446998,,-0.047405635614238766,,,,,-0.04862357746144272,0.00047648158984671466,,0.024015462471699358,-0.03820775021872752,0.0024424090387092892,-0.029892119401854596,0.04663916794473734
CORT,0.08381268306130792,-0.06190190553196909,-0.028522546415250774,-0.0018438918278900565,-0.03403880016271548,-0.012424203469164136,-0.019833220593807738,-0.04329535680061112,-0.10842360332689384,0.01627817055843936,0.0223512834707028,0.004893714843335172,,-0.0334205545392909,,,,,-0.06920838886449136,0.013532302551211604,,0.0011104373542897685,-0.07072501554290934,,,-0.05205557816125897
NCAN,0.00033117319403839373,0.030398317658882124,0.03416879726028398,-0.0026737949135055535,0.013237474019091774,-0.04885454706031846,-0.0969075645327891,0.11390162750671548,0.12391622624141842,0.03993872549984345,-0.00698524737822756,-0.04750424870337406,,0.13351966175528948,-0.07345958648553498,0.08031601019096911,0.08308968568029294,0.024708964506714733,0.07855933354821576,-0.030493658650436455,0.04562230281876016,-0.009451333412764008,-0.029119358540159797,0.05107088310983082,-0.05811051088687475,-0.04787693894275348
PRG4,,-0.05180995655926767,0.059619233441167145,,0.046713121130114485,0.006085579128935815,-0.03145333135100862,,-0.0011971340230108854,-0.02299343064656238,,,,-0.04153793219191797,,,,,0.029430730084384904,3.720216803409563e-05,,0.11237123895238897,,0.10783833458019217,0.1564887300199879,
ZG16B,,,0.08815382343296413,-0.01614091658970449,,-0.002631582502820631,,,-0.007283263031394718,-0.02315631651563633,,,0.09821466547214755,,,,,0.00012826028742054783,,,,,,0.012412501944654958,0.02935141719378981,
TGM2,0.03154059490962949,0.07084978192351812,0.16575620306177316,0.03978962247419697,-0.009658114495524873,0.019735842769633406,0.017150539970166665,0.06960397711253911,0.14978556553836614,0.0012417425044749977,0.04524900096655118,0.06136069276725095,0.09668968956871014,-0.01772966233675355,0.18229949870685486,-0.03804094122383738,0.09573181314069044,0.02783289713029083,0.08842668400335381,0.1455745643051173,0.037443805707573594,0.11248415048065137,0.05847425823694858,0.16036635533612784,0.12577261799065087,-0.006420045642753055
VEGFC,0.10720183061301805,0.13254053336782848,0.09409001681749654,-0.046358750495656645,-0.025556920906764778,-0.004557591372593339,0.014829431888329388,0.04777372503302764,0.04450312735758962,-0.04711726586842533,0.04630932066426872,-0.04526190805115736,0.00535902479750385,-0.004911392578596369,0.03602186631646608,-0.008519262134396903,0.13954794550268465,-0.01324310876285942,-0.023678276804509502,0.07855996024876212,-0.0408979161710262,0.11888304415791391,,0.09893282597269785,0.03882151209156363,
WNT6,,0.1416502374549383,-0.008793456916446174,-0.03338873415232958,-0.007662654301386557,0.03643091459906409,0.024846232114204714,0.09116893200712917,0.03538702519859797,0.006635262775551359,,,-0.07210315315704514,0.037071099539180044,,0.020032723145865412,,0.09239800115143465,0.07613105614743593,0.05124823238957282,,-0.00960164708285112,,0.03723704666524629,-0.017240781574171915,
NRG4,,-0.05729278854165664,0.03267463221252804,,-0.01888935576764571,0.03567075116541603,-0.0684631556837689,0.011507061882183213,0.0647259897334379,-0.03935657044549595,0.03315395795480596,-0.025751482850960003,,0.03165123053869603,,,-0.06343384503629974,,,,-0.048397799453350314,-0.048167773485055354,,-0.038764976835014876,-0.02644557383689624,
PMCH,,,0.16816754713418836,,,0.005097326367874218,,,,-0.005475569666740309,,,,,,,,,0.06501700501737061,0.0469854758983531,,0.029112051214381516,,0.11440748143657921,0.08235366479406102,
COL9A1,0.047515434458555335,0.05489612907258288,0.14973342861340785,-0.01846945697002625,0.05380888956483538,-0.03366784927750507,0.04195799119081656,0.15514825600466556,0.13264495514414842,0.030733271459684696,-0.003934640719303461,-0.0008588594984889158,,-0.019460987571455615,0.07428300270726602,-0.012750077178540379,0.059152575674862755,0.060617114138057517,0.08221192189828928,0.05611381723488132,0.06205413485327126,-0.01650789724787678,,0.14539502071445606,0.05964152964279553,0.0024980589555111932
GDF11,0.006001634972178906,0.044868468892922356,0.017496413459596304,0.035786842174932845,0.024873704714849305,0.014158702049821722,-0.012148069959722002,0.12458987956926364,0.1946783823121157,-0.0023436191312554825,0.03532878688648545,-0.010674661336504977,0.04156154091080693,0.07967018534371827,0.044874221017801995,0.06445666746032874,-0.07686316926033875,0.015507245846940207,0.06726384444622152,-0.03110337111252806,0.021831712997836143,-0.016899036591763224,0.15007132538398557,0.17864772386672984,0.03812276387085152,-0.06010330345950669
RAET1E,,,,,,,,,,,,,,,,,,,,,,,,0.05149551599636432,,
IL24,,,,,,,,,,,,,0.07411926754504142,,,,,,-0.021699351808926175,0.0897156496497688,,,,,-0.01541201782316625,
SORBS1,-0.06723455805922698,0.008911966508718217,0.027453791472081726,0.02428585782338446,0.08812497592068591,0.02903892714719061,0.04160500991103567,-0.017745652845109584,0.01934508826102368,0.016110240997231278,0.04684972050169069,0.03680861299215592,0.09966742322557169,0.02190734801490925,-0.045102653922882985,0.10604953200620568,-0.1185703582178021,0.013856546991693029,0.07838740981209191,0.0744354883373016,-0.010774056160983658,-0.03359918871644143,0.051769723007142096,0.04266192729493096,0.012218670902725447,-0.044043922442912435
DLL1,-0.02138645155251366,-0.06923872016157462,0.1347220913778789,0.03346265384061441,0.08793755165457119,-0.005912330038556563,-0.004341459524760702,0.0815346259337373,0.09372561787021835,-0.004158905708437121,0.013319057961201284,0.09084359075105752,0.01947415841123369,0.12232089932114129,0.09203096705362047,0.002227545330839356,0.0154729561747442,0.04143804181003329,0.01102835924252539,0.04717323291603035,0.0009736926625147725,0.11360707867998107,0.06495603683712178,0.15771855515994188,0.05305372515571439,0.1959778115615188
TLN1,0.05361627235732303,0.01520903547689519,0.079895133396064,0.02479796859561548,0.030332075279091087,0.04020198355335153,0.03497794925065996,0.15642448068242185,0.29495646448819157,0.07440171885118796,0.06301234210426601,0.08585956216373353,-0.006231903631374235,0.07016244859201516,0.07122954463945784,0.11809618794956718,0.08858683663326475,0.09630729190697025,-0.047929575332095034,0.09377306986200823,0.06473264017546959,0.07892386134694952,0.10900948690102205,0.1039161469009796,0.14853053342856834,0.08960078664855661
COL2A1,-0.023104706864779535,-0.03802193894765341,0.058518883783730984,,,,-0.0493410304176855,0.03134021157744597,0.0618215213682181,,,,,-0.0036411217229218584,,,,,0.10881535217107871,0.07430596671983838,,-0.01619901902837108,,0.14056385790410886,0.02571593024810098,
SHH,,,,,,-0.02757425997255739,-0.010601593372784759,0.1021371909013755,0.01880537691761079,0.018436045257288158,-0.027731111342291247,,,-0.024738263452717842,0.05379363441189477,-0.043890127832003224,,,0.011122021751938436,0.029695181818696605,-0.01926711158103795,0.02789041063619765,,0.07434237866902699,0.050437052892908806,
PON2,-0.02102986628032331,0.005334977085941427,0.06007968600340999,0.022173296760965255,0.10564338935412536,-0.04301074297578738,-0.009799424612223334,0.0038725705849368902,0.26096766400911675,0.023759468112422688,-0.008417992764374656,0.0658479481193894,0.16813458074124402,0.059784444688439076,0.11007229398394382,0.11931418540412508,0.17251716203856823,0.05317129381615436,0.1028128249507374,0.0818573321521881,-0.0057999146085207925,-0.0437659009246743,0.06289712573888373,0.10762906776205819,0.031170032606187628,0.011705312998136359
ICAM5,,-0.08486501951860614,0.006330333897076289,-0.019230463773312,0.02973485139136257,-0.030086707439949695,-0.029972433272200595,-0.016154723785494797,-0.10070577417920076,-0.04320724412100892,-0.014896627344608043,-0.04315388238759896,0.0005444033330223193,-0.037232484763165936,,,,,0.027292646621387678,-0.02662810986943494,,-0.006500378283980245,0.07115986040160886,0.04849480584610279,-0.07506203692372408,-0.028563535150766654
HPX,0.015706216582919142,-0.028399315759121677,0.03404365749023743,,0.005339519810752489,0.01906550599371606,-0.0071864948651679155,0.051088462324880915,0.04088374341858402,-0.004412859039895869,-1.5835920318412485e-05,,0.06697859580474413,0.017926075996253992,0.01478408079039134,0.05647872955267644,-0.06934445074450893,-0.0477722037751469,0.06772186837062158,0.106683283673194,0.05905246907771144,-0.007196058649945876,,0.10585391073989302,0.022734445945148823,
SFRP2,,-0.001744985849303617,0.04049913993800006,,,-0.012980634086690144,,0.025544999409041445,-0.0064156096198083505,0.009011135425205116,-0.02865648264682871,-0.023248573024789873,0.10669785830007195,-0.02988368170132844,-0.055366369584557006,-0.009497519167427982,,-0.002883828780178407,0.119375485309125,0.021887864937285725,0.05169048623341588,0.05479264567853496,0.06253750237316699,0.10435026249834972,0.14326554769905753,0.008837254560842542
CFC1,,,,,,,,0.06809901789352708,,-0.025161339664452772,,-0.05865010402975991,,,,,,,,,,,,,-0.011659845658817218,
CD70,,,0.026308349425355967,,,0.04514998377196791,,,,0.020426885246531624,,,0.03085845988916325,,,,-0.08646139328382926,,0.16108505705517953,0.15401932071013952,,0.04342677034146002,,0.10137004395096741,0.019223713371226945,
HP,-0.0035958061975867404,0.020483860129180163,0.053028231593895296,,0.009635101955072094,-0.010476060830081414,0.10059102160341026,,0.10634001575147518,0.029074279903959305,-0.0021804996263325225,0.00753551928551023,,0.06626724430323785,-0.012714463754468244,0.14082584151661504,0.18244551873965933,0.0350576442543917,0.11643241872029272,0.035091422640259155,-0.003463638174676886,0.028250045359958613,,-0.0068157214544951545,0.0922808544090257,
CXCL2,-0.016385958662924093,-0.010813579832800457,-0.006416369435350699,-0.00914574506282639,-0.0012484587171450413,0.058375692239772056,0.06368373325699002,0.024734822007468852,0.05557837987785909,-0.044555550117696525,-0.015357610505860748,-0.047807780265791154,0.0962816533488774,0.01232844494072146,-0.010277721102271984,0.00886731078576647,0.040497692866111226,,0.1664672514287716,0.16609526640265526,0.06936134469328757,0.004284208194170573,0.09756749603877037,0.06629036668313362,0.054348435264299604,-0.04451119358461277
NPPB,,,-0.02328039033536948,,0.02438552311006442,-0.04218237318142714,,,,-0.014098397168285697,,,,-0.03798260253271805,,,,,0.05825282680627281,0.0681839898021299,,0.022761703517745344,,-0.06342952260161108,,
CCK,-0.018288566004684786,0.012985243366040223,-0.01588294123632367,-0.013106059927737203,-0.021530126727720894,0.041234221316191394,-0.06666641198589059,-0.13031526287767475,-0.3384623787143129,-0.05116520182357568,-0.05043012876689962,-0.14274601254708916,,-0.11630648215493812,-0.06263448716496572,,,0.020689481923769414,-0.03878698718943251,-0.05044719611219913,0.06578533412342524,0.06175620524678756,0.03241651543685205,0.07913941060591978,-0.12904932178114026,-0.05220987621796702
SEMA6A,0.05510851424417488,0.019664364247210814,-0.04989840633524216,-0.027772353063147803,0.022070740349817916,0.018798174171586732,-0.03261583969585314,0.10935757556211487,0.2525116845142367,0.03815112329608488,0.041613153075106,0.11367906233804585,0.12957664171407515,0.12154762186469427,-0.059885564582352155,0.1310315114326787,-0.0183035828106916,-0.00036230059773094766,0.005458369020962595,-0.02839099894625878,0.003048593906461239,-0.05438613072521243,0.0666884869634504,0.0037518127997138995,0.06349071798355542,0.1787619066111972
IRAK4,-0.042850826280754685,0.0811998602774277,0.04627399724108562,-0.0037954558936429995,0.05855765524400912,0.03487541585110594,0.07130481390512661,0.09198115515901223,0.14745904370399665,-0.00461649185489102,0.024443406485734936,-0.02467402865613741,0.1338988932446699,0.04645471432559405,0.0687790014675894,0.03727587779546619,-0.05151828970917858,0.009297424593138965,0.013240165651298968,0.013419063935440751,0.04557245135300992,-0.011997456818715961,0.004898173393861036,0.18630327504543354,0.155357912655648,-0.029716590918404354
GSTP1,-0.03852607250000578,-0.0041242706021364295,0.02908200615631318,-0.03127362252605401,0.010321034501112306,-0.04076431470802883,0.060165930925025264,0.11200745803540264,0.28486049011511155,0.004090822278315477,0.005764256424369333,0.1014486453800678,0.024206565978167387,0.05820479515437325,0.040346821051494355,0.0417321959356521,0.1079210683357893,-0.011653285558275168,0.014747624430618224,0.05922237226143573,0.028508694000658683,-0.017260786194799288,0.02708320379190847,0.07650265709400224,-0.0016486217717655413,0.04160122396404669
VCAM1,-0.021742927401741687,0.05283665537573728,0.061863603570533165,0.0506626969194888,-0.04436183037695126,-0.022116644771611845,-0.006132739609801249,0.1637250800999465,0.2930286094203872,-0.04424539625041358,0.03194831105866824,0.0029497571260651964,-0.06654525658855384,0.1013886079371538,0.03084104458110606,0.11446173309644772,0.03205302766113078,0.02573079752973572,0.11091484487461446,0.12258965812877243,0.06710507236370374,0.009925552596621237,0.02675075590717856,0.17989638990231238,0.0466308065614011,0.03740793105461731
NXPH3,0.01823375873609619,0.001718958508631309,0.014020209088741516,0.062476607109464205,0.04064853612001393,0.041308561581756185,0.05652577774806239,0.1581750282623977,0.12314498194679326,0.020482360947736828,-0.0003995117783413108,-0.03762565927038786,0.04823074773175359,0.09329078030149221,0.07576238265214136,0.06959244355554521,0.06462495530065478,0.05163097151805733,0.11096511172942408,0.08130539711729542,0.07467463048889278,-0.01336202287357011,0.013974206987350959,0.14955612504254215,0.06994331629739371,-0.046510244570574774
MTMR4,-0.01551818313786622,0.09503104189927623,0.053176698905212906,-0.002393017429845924,0.07003546633602777,0.08807411162082167,-0.040140130422854955,0.07272357718349112,0.08016243345966999,0.00579629436979898,0.019938854300663146,-0.05451037601380154,0.026568227675499646,0.04425630664872294,-0.014077535570939416,-0.037866628998784096,-0.012916321430126578,-0.010104107118977385,0.022571449288537347,0.06409329561993399,0.04441335130834745,-0.05667781739807362,0.005112053936923245,0.09463945490923317,0.15049515490518742,0.09923276671474145
LAMC2,,0.008470363486595479,-0.020463045075669352,,,0.015146720494957125,,-0.019442775672731703,,-0.026822834819564285,,,0.08193713402573082,,,,-0.010159682999395661,,-0.0446192765150539,-0.03469017976426782,0.0025414866689217235,0.05930743661637665,,0.030229071650641825,-0.02034270330243164,
IL10,-0.018956807465070852,-0.043640180930191404,-0.018963791091611806,0.04150118576858889,0.021163022794312803,0.008680758878674684,0.032962702834077755,,0.0362053027059053,0.05807407165698693,,-0.062061547045568204,0.06858221011862467,0.021407925708190296,0.06523524556551673,-0.08187415324744822,-0.015270417281409899,-0.0010500663972430808,0.025114500181251553,0.09585381443627713,-0.020953963049090925,0.010537536335506083,,0.11721039634915434,0.09324452771494827,
SEMA4D,-0.018166773924104287,-0.010711696463734596,0.043995525337432013,-0.04222424996114386,0.02552034401497038,0.027285374780311553,0.019722219172575866,-6.138339599140961e-06,0.008901417094014956,0.06334507061539858,0.012785501538198468,0.1786705022947959,0.05567104944630048,0.0355917537628303,0.02154228178614047,0.051768366144253695,0.018354298902641546,-0.010170311786491774,0.019210093004805476,0.032383363372868464,-0.036252560811322485,-0.001404003724537366,-0.07125567838474924,0.16629043758604692,0.06069382115233698,0.07300509492731282
TRH,0.055584203897921146,0.009393695669245753,-0.005999546938065338,,0.02193699417891656,0.041528370489836146,-0.011996653333520084,0.006879302327434023,0.03791596892516935,-0.0115402448616313,,-0.03137037297750165,,0.08785077110173928,-0.028926478684102717,-0.01950246795203982,,,-0.03326844238340116,-0.02771437132476019,0.031683166087189796,0.01674569884571674,0.008732223656665098,-0.016069911954267865,0.11471708268194515,
SEMA6D,0.026025615265117378,0.08645120788852538,-0.022823647664591377,0.0639052130256514,0.011304725804728527,-0.010274135476505632,-0.050061902426981636,0.13353461731273955,0.18800947749554017,0.023822855166448345,0.020947419855804245,0.022603696962709263,0.06540791418743865,0.1314622215749015,0.010844556202442743,0.09726817382698232,0.11400196192097818,-0.01433460618091137,0.09124749869297089,0.015470589863554646,0.038964971746681544,0.012118775598486982,0.05552038605940525,0.07248250175228622,0.06113090972752809,-0.0822675844926892
CEL,,,,,0.1589010118171371,,0.048400063744967324,,,,,,,,,0.03910961568359253,0.0020067402152036382,0.0199424563748591,0.09874344444381654,0.08296636548681424,0.0569782213893949,0.02789697804530532,,0.11922048141105164,0.04333265463266926,
PDCD1LG2,0.004680765810397776,0.022070413684623275,-0.048167530493399426,-0.014455136976076815,-0.0003992963295236929,-0.00932708481655722,0.10332034245958528,0.10980014281412448,0.02572866700503245,0.03212255484664067,0.047698283538556624,-0.010286996727684983,-0.008872082300260277,0.0788467077162792,0.030226240696391907,-0.051664902078900767,0.08296657612139514,0.0417460396808288,0.006262516687975465,-0.012278562622060092,0.04835735624991979,0.07220678120384458,,0.23899795474070687,0.11162898496121532,
SPINT1,-0.03817509901220529,-0.0015602429313001957,0.03465239012498757,0.03101064836699379,0.025169219972076346,0.06711678731526607,-0.013614790216448545,-0.013808639956298751,0.09223738552106606,0.02566181308772203,0.006654481633892623,0.04206281073217601,0.04104707778263267,0.02083913238375176,0.009190678511422848,-0.05502850293008946,0.13602025596359343,0.04188910914647064,0.022326371164582432,0.08896123133448379,0.10705929124697793,-0.002766344331954208,,0.17548470887844503,0.08004453296001496,
CTHRC1,0.08921827091981083,-0.02167322321710786,0.24779179424332046,0.04920987273975305,0.034330402676059864,0.00921369979670713,0.009374951145061738,0.152826292110361,0.18688441499680372,-0.00482326260004401,0.09510204022237996,-0.012247349623374157,-0.07923213889075682,-0.011344381535423196,0.1396642510340335,-0.02142965293137479,0.1879555222639782,0.025212929048941284,0.1544616964957613,0.06932296446596992,0.001629928499560819,0.11519038021970368,,0.1374350681034434,0.16702271442857233,-0.00947785700577005
PODXL,0.05366858864257124,0.03768853266910521,0.17755035917776613,0.01888088511704225,0.15415106849670343,0.0792320661685571,0.1128945324445041,0.14137297423139178,0.2562727604439784,0.03584489321421521,0.07144320923138121,0.04885726289675565,0.10150406245346778,-0.012221260085083441,0.08714035864381559,0.06488518416256375,0.11352684047000655,0.06557870726851539,0.15765355441822174,0.12388259699913816,0.05849245798489955,0.04662525432968926,-0.002201268701991794,0.0916141580135875,0.18554328923243538,-0.04283884265957592
JAM3,0.03618695840807303,-0.002713547822615371,0.05747531893909235,-0.013729199954691232,0.05138211731868446,0.04425614176279324,-0.008531518221564975,0.0480293396209399,0.263360336814061,0.07540729140322923,0.022917754102866908,0.1826579976656237,0.06905841347073537,0.12707968270213402,0.023878824308657072,0.15740910446465275,0.03160807853117638,-0.056287441595448955,0.1565953035690486,0.0635406633983331,-0.02294260275130494,0.05447031889074497,0.09125309317804019,0.05021230245045248,0.09373955773266177,0.08470988931455531
TGFB2,0.02433228068792761,0.03746299047761085,0.03382054321356013,-0.02099664218999753,0.10130170383856874,0.03571938368973402,0.05151681194208176,0.030920916769030058,0.25152545085545247,0.03936063480588354,0.00018563921771631687,0.06093027418365593,0.08477572542909756,0.025926628681440425,0.044386239635789394,0.08718952207621561,-1.5724555875060958e-05,0.03453348703500486,0.016080980680224392,-0.0019673394790176136,-0.018144175154040574,-0.010960832441992873,0.01794451960585011,0.022845854310367335,0.03574427038155754,0.07151554403833373
COL18A1,0.01614142263823876,0.048517199845718145,0.21804009762856308,0.004520501569062487,0.12970133576199258,0.056554877482928395,0.036655779437090474,0.12833495987538124,0.1985318705346668,0.06300998005851657,0.05151065986729019,0.04450122582062851,0.07752452064734548,0.007506965084009579,0.10362541815019924,0.02372380700809348,0.12964126399309117,0.047789445392017654,0.15328017566537402,0.16290148511062244,0.0050264252481481185,0.111826502302863,0.036771456161493424,0.09866625202127564,0.1572072925650787,-0.026531944809669767
NODAL,0.0938153618186322,,0.10579694351881204,-0.03215894895564948,,-0.010414948376375941,0.06367572962708855,0.1648503658821269,0.16625505062098836,,,,,-0.006558550252802583,0.12949362019342286,0.03963021307657712,0.11406585546308422,0.08455415564730472,0.05583836977662556,-0.02935176859541068,0.0055159617878527715,0.04054183994531386,,0.04117580004386664,0.03299049644837743,
INHBB,0.04004150893144407,0.057034838040767116,-0.0032735899361371144,0.043414905786248646,0.12614683622303943,0.026421463578046256,0.024905083375481668,0.008592023261571274,0.08415565074657795,-0.01281900315416707,-0.003720344344324645,-0.011774238151365302,0.11317434387312808,0.10536193819157993,-0.031285605227936775,0.0026399442465005222,0.0856751649841292,0.06652382932642291,0.10592735851041947,0.08327798402722797,0.024110302178855136,-0.020655690151784735,0.11261472919266674,0.09745749475256037,0.15052324184543403,0.06606501586255964
LCN1,,,0.10406833907759196,,,,,,0.0006648809931450454,,,,,,0.0780064315496501,,,,0.09562522369157511,0.026102381155048312,,,,0.056656657624649436,-0.027356670142712536,
ARF4,0.03401130618031465,0.03221351199632802,0.07806465649067848,-0.004851812499036016,-0.007725691554321898,-0.011051196700257199,0.028814313529251286,0.08237255712638913,0.13852324013344544,-0.008881843048702851,0.02492264488025607,0.021877946500307072,0.07932443283787523,0.0643200400388432,0.07956455918494418,0.015104982934580749,0.07640023579775607,0.04234794418907873,0.10200326766926761,0.030586756029309433,0.017596649743273553,0.0066938792127299715,-0.043486311117419504,0.0019111287336934146,0.052125147550919064,0.11168227473927039
CXCL14,0.05422693169028533,0.01710847786772828,0.025952004119960705,-0.046165420247869716,-0.030950092982983447,0.013235258811210893,-0.0009020023084322687,-0.08894053583510225,-0.07544041997435072,0.030194596407602775,-0.020614926689619475,-0.0973951773395833,-0.060877837967824165,-0.08021784933086261,0.08108469429306725,-0.007357880680139337,0.1597557291983108,-0.021425892953034494,-0.00043798395918772596,0.05405534459046216,0.057706591745123624,-0.050627818997926566,-0.04875088295587754,0.009677955962680946,-0.04387600331739748,0.0011049226790735475
LIF,0.02578947674798233,0.03645028061738014,0.10796353107609419,-0.01495079705181128,0.006692240980936027,-0.0145708174160268,0.12744699531948805,0.06678186248601566,0.16816480225226488,0.017499698010571055,0.011989213359750445,-0.07223725553642461,0.07629295558459089,0.023657852428173084,0.0694431528393554,-0.1027667562855884,-0.01538539617845801,-0.004593450488303157,0.03227111224143518,0.0938383659253124,0.03080824610871587,-0.013109328834657106,-0.08035190198950652,-0.050375024347684934,0.10115307487748333,
IL17B,,-0.019925308915133753,,,-0.02052216413896151,,,,0.05650966145098127,,,,0.0054361131901564125,,0.16516992339941158,0.06227207801432422,0.003404883683935677,,0.1407812328368035,0.03071087021886937,,0.052582011101337395,,0.09943616408730946,-0.0025371053763162655,
MMP1,,,0.10630828815939995,,-0.05779056566020075,,0.024774813051712245,,,,,,-0.2186651782421713,,0.19067107436649142,-0.045642844503929546,,,-0.0016518953165839763,0.09546689580042445,,-0.024554337521215656,,0.1277128048844083,-0.017375924581377166,
MATN1,,-0.04927212174509718,-0.008807976533779347,,-0.04659887372190455,,,-0.010802887374821539,-0.03367336532395465,0.00857107116550315,,,0.014957241162036172,-0.03109659614726553,,,0.08361752317840503,,0.07494746939117301,0.048457089666366686,0.05105819910831325,-0.018600889378642772,,-0.03006913051969194,0.08095475112151422,
ADAM28,-0.012210179613597794,0.03409772724382541,0.06524009376678058,0.02719911144106478,-0.08531803943730795,0.04810979496842918,-0.019743604572998258,0.07898984263372806,0.1730719925895303,-0.0016203701485188204,0.056416991617529215,0.08099690871959446,0.0965853468274519,0.07197737718821738,0.04037322220921854,0.024626424553414874,0.05254320491177443,0.05716741905826578,0.02200030315298086,0.0318131046144235,0.007462425004443827,0.05803905614546291,0.03966248874176518,0.1718653290126784,0.13227258856514051,-0.01896183326112516
TCN2,0.09892710698796171,0.05451078557173142,0.1811650758351245,0.001479893063167729,0.02835044314969917,0.037171372091742004,0.05449215196957743,0.14601741585581196,0.24132120868738607,-0.025336226231155567,0.03250849656595817,0.03421310058865067,0.08102706019334337,-0.04307278795990246,0.10076658248019578,0.09796879591940705,0.07259886637780878,0.12582042722844497,0.09955482315095848,0.05915120627519334,-0.0006791046012056395,0.10587279079920114,0.06247404092293808,0.11716600114307106,0.11230244035692337,0.04345293861322714
THPO,,,0.03186368189902149,,,0.03558860683671393,,-0.006026636061941087,0.06114352830075645,-0.013678015388292806,0.03832663508477217,-0.065081161955307,,0.05418882868825812,,-0.028478901486674302,-0.04183928811866492,-0.04194498873518079,,,,0.004092456632945671,,0.08260752655783643,0.018997459621057894,
CUBN,0.017561802620930992,-0.018692079932548063,0.09986171389784491,0.03627763361375657,-0.05272076939403408,-0.0005224288056935954,0.04537324325004296,0.05212851181324212,0.15264099772651563,-0.01675880281330357,0.038626294637222336,0.014355835967782943,0.05005975116154652,0.09538898888671048,0.03389878066876023,-0.07784753752122735,0.012305644585677908,0.16321670283063036,0.03506228849213044,0.10659196044450754,0.005442643678101197,-0.05694888799378444,0.028273940769370894,0.16607089375936018,0.020280739446829378,
TIMP3,-0.005278530468865287,-0.008307859884856631,0.05840912593827921,-0.012348558882109803,-0.016915054779646763,0.0773079125862892,-0.048333819057462264,0.055306778802807134,0.19766176766189264,-0.049848149732409176,0.016861195133796147,0.07534433231174288,-0.0018472773406270444,-0.006330532585046119,-0.002066581870891526,-0.013844102507494852,0.02332993272063407,-0.07257771578774981,0.05063350920124273,0.04153817524950318,0.003999417802608604,0.08048962601285041,0.0033744685514167055,0.11511871251729978,0.21381571402850422,0.06320436710229436
PIGF,-0.01620051504207023,-0.04072327686166613,-0.012854059442420138,-0.014391606968385156,0.07964881295941968,0.0039301144418338995,0.05247807929145174,0.057127821628916664,0.15910665618747163,0.008416394202456849,-0.037990006528815796,-0.022182014171772742,0.032932659136013995,0.06409653758088198,-0.03481951733187348,-0.003487054740521104,0.0381772686287072,0.04838993866339931,0.06940096100664252,-0.021308514211741368,-0.016562735479142134,0.05526175111012909,-0.05630452150660815,0.14792051918792423,-0.008287371373900428,-0.026447511888377115
CRH,,,0.038001318875378186,-0.03122617530402576,,0.02537845902451619,-0.03440384633668978,-0.000545078840883097,-0.09228698436483114,0.002403989978810027,-0.004011210893929387,-0.02063256609929176,,-0.05737159504279348,,,,,0.018776301360542046,0.04117316243898981,0.04764435382638597,-0.026192868538853203,0.28650180548058535,0.05354231700270536,0.0401206515121944,0.06881407411943274
BDNF,,-0.025744324824601972,0.025772372072069092,0.07918230977543166,-0.0022641386520073363,0.04104604521434777,-0.04018110463962029,-0.01774477992971778,-0.256254828742989,0.022329169626834202,-0.01197143360824746,-0.024890711891978515,0.005770077971935302,-0.02135988572746034,-0.0008778410915454893,-0.04118270417847446,,,0.10141234630564688,0.08116977521387636,0.08442728011063558,0.016477437199405063,0.000835304950930851,0.05113553212818127,0.08499527836904515,0.024195318809151507
CCL5,0.01107272541527143,0.09774377854657232,0.14298318168668583,0.03651289706229857,,0.03615143632862936,-0.0010265954179707881,0.120167060466673,0.15701558726653475,0.03384260443159353,0.027968264681663454,0.012822637934930341,0.07594962871013178,0.003973467903435347,0.08220298119869789,-0.01889686883388462,0.010053014096439382,-0.033468745429031825,0.10633259229456751,0.042947840810193906,0.02157737685813757,0.036005010786905496,0.10860478779069258,0.2020596280074117,0.059439746272809395,
GAD1,-0.02593961891000154,-0.007151819846215867,0.03687272000218374,0.011834201275371345,0.011976010041716542,0.018779823275531987,-0.016433333347153002,-0.08351264892276859,-0.22734673671350392,-0.011285607527186499,-0.0017497927221666826,-0.08759972857882042,0.07649604686170176,-0.0915619097408867,0.018479945420726496,-0.08002162257863112,0.008516411522354703,0.04791688729484351,0.1279771500622958,0.05712720710130255,0.02271466868832476,-0.03970304202433631,-0.04374206950077911,0.08924291925774533,-0.07582562161241105,-0.03867269150173242
COL14A1,0.018794125002101827,0.11433931342354245,0.09483149212932855,-0.02397140267593518,0.049912213208802465,0.017154983933272493,-0.00443237293503731,0.004442498318342571,0.03914504082230091,-0.008429820712380897,-0.03902783129133951,0.01952262871162224,0.06439046517529966,0.012974996269441838,-0.026490386923464834,0.00297990390916335,-0.006024411532909677,0.030078061907471053,0.09996673670248583,0.0904167190585193,-0.04810496711685642,0.0051000417060266395,,0.21167562139979126,0.08604320899536914,
HLA-A,0.03021352700730916,0.047206033263074314,0.11452693690609925,0.08018159694723279,0.10849068579416105,0.04166573376430809,0.09007637065388266,0.08829171968254959,0.3164820180106344,0.05996636704051546,0.0217203754780287,0.14488985436061977,-0.02956883898619903,0.09936448682399397,-0.03305471132262228,0.16202577974820742,0.12690741260794358,0.014626391881155944,0.05913370359506509,0.10608794337399169,0.05513047345492228,0.005784017821548186,0.0809990479426928,0.035140619215412214,0.07557306934531427,0.02047164711563838
CD5L,0.02876649679731228,,-0.0063573800969443615,0.04532280697951663,,,,,,,,0.029490598734861765,,,,,,0.05374923821601976,,,,,,,,
FGF18,,,0.000551094723747199,,-0.061222415336248545,0.04166058916895631,0.008450583201094068,-0.018934789724374467,,-0.008530182923256436,,,-0.021145066671703367,,,,,,0.07614607435924782,0.05739913449245905,,0.04473417341555104,,0.0656240464613017,-0.029142535477288775,
ADM,0.08476392265211352,-0.036617496731949896,-0.048504345954314715,-0.01726536745356648,-0.03139793094528896,0.018308402564096042,0.04557412824848591,0.07835731742028852,0.230237038310269,0.04832999454072386,-0.018621493683518408,0.12678000581386661,-0.1414371591593937,0.11725093580889,0.11028732410658154,-0.07016587561552458,-0.045264843693709034,0.008971333448229243,-0.019796686172939615,-0.026408907982104095,0.06705538640471667,-0.04024709298479784,0.07866347212731711,-0.007031235075223233,0.0701860061393532,0.08634837753395917
CCL15,,,0.05389652278401375,,,,,,,,0.035115918995656664,,,,0.014433912983406778,,,,,,,,,0.021480068810064073,,
GNAI2,0.031725906126898115,-0.0023613796912403556,0.1235977877778164,0.014292461433589634,0.02861868063698413,0.028658717745475865,-0.01139365643986143,0.13089132500796566,0.2671082189186605,0.029175473226930433,0.03216596501693138,0.12704310541542066,-0.04027161481310785,0.06743528016031518,-0.0006578697097143421,0.02575210376191832,-0.041414454370495665,0.08930544788359022,0.030725338638539084,0.021479899070089667,-0.017001179661955728,0.018391585312930454,0.02487125703930306,0.056383920715796565,0.13749642351598404,0.09975607607824653
HDC,,,,,,,,,0.2337213753143975,,-0.01221738322401286,,,,,,-0.004338166199501734,,,,,,,0.09263651342208765,-0.017000836948252992,
COL11A1,0.05817204903525971,,0.13161332549989074,-0.020690170567094473,0.060761585639120194,0.07492306052368988,0.04075239772541777,0.14899568164262184,-0.08385079736955972,0.0014199776374666931,-0.00648963425896354,-0.061421454160662,-0.023713836470817914,-0.01197034115886222,-0.0022698279504904037,-0.003202378862729332,,0.048562378878330446,0.10270734389552108,0.08993464812064188,0.04374269552208609,-0.03297767549569559,,0.00817758275066275,0.0718078675235749,-0.010129598775489279
NUCB2,0.007247398706857137,0.01655319509533942,0.017028410394559615,-0.0339075626209231,-0.0726849766884642,0.07443975965422828,0.032659120066852516,0.021445275284023433,0.17144763619652068,0.050608026026062805,-0.02362881306927406,0.002622388725969033,-0.022159172570011702,-0.011199993939102836,-0.04208477270043332,0.070450912002448,0.1430240774037308,0.0541335920521773,0.01496330117252144,-0.07048783919127756,-0.01682250565480386,0.010935917209926737,-0.009186897571646795,0.040212320266897014,0.023331770568091065,0.011402147452106567
FGF16,,,,,,,,,,,,,,,,,,,,,,,,,-0.01699986406165588,
CXCL1,,0.027408437002858384,-0.01214163107289277,0.01617168727479718,-0.00776150211874547,0.03808253980334595,-0.017619384852346754,,0.0927623947179622,-0.01711141056428574,0.04784159270133463,-0.016116973164564643,0.1796502595231628,-0.03301068982109444,-0.036641110780734405,-0.10092838444830617,0.062243515121742796,,0.0901379932438793,0.15585231049865264,0.011490509731809135,0.06083158450930249,0.004791428614324858,0.21083001252248879,0.029528225092799606,-0.056194475610521974
VCAN,0.0022949658685280775,0.054157971453353604,-0.03295126685695197,-0.03505578112390893,0.034404000647066536,-0.037822303236493604,-0.008960857796101711,0.14631556058412873,0.259987121481912,0.013686757473719884,0.038539630841325896,-0.030271701301230348,0.12533809148732708,0.1036054863459696,-0.11128666779799432,-0.0032626762812038145,-0.0802065134991577,-0.050274631805235295,-0.059747745613195166,-0.08286026293815305,-0.003956212459087933,0.00718049056185065,0.0916560684939085,-0.10672889225939529,0.14174258708248158,-0.0020755466241349292
MMP7,,0.06283187889321568,0.047358012893716536,,,0.03686912035359052,,0.009236648077358248,0.04945454602725375,0.0018581687802646742,0.0686627768934424,0.0030987717020093688,0.05789222347803209,-0.0360945355509242,0.08927901160061552,0.05733893952147933,,,0.13121516525046756,0.14146943730327474,,-0.026303778711983392,,-0.0010018487168737202,0.03888553718347363,
PTPN6,-0.028151345092705934,0.0303869831437654,0.02701996167303824,0.007741023255543056,0.04869070034040307,-0.015754859575358934,0.04035739956163,0.07308068097229545,0.18046428873377798,0.03580086039355427,0.0011866931419842373,0.09616807691690737,0.08553982168595273,0.0006651042159826349,0.044199397914229194,0.015608950743730728,0.12420472425232261,0.10364184674890248,0.10671272457708761,0.06370030180494111,-0.006741571851805586,0.06898213236072252,0.061525988204439074,0.21571951531938782,0.09860849285610626,-0.011138529808322398
PTGS2,-0.015709372868534195,-0.012885599044702344,0.0647113684544328,-0.03028550654754706,-0.0047807102969887345,0.053136968420333455,0.014940027461344431,-0.0019011604317407621,-0.207628293798111,-0.005813620503176167,-0.021707804437302365,-0.014499734651829774,0.04631494316211891,-0.009628499870639516,0.10703176132315266,-0.04006411000430513,0.08832671174173964,-0.04268929286211251,0.00039448646705108925,0.03897486894797716,0.02710582247792676,-0.0017833258012885619,-0.03006006288381605,0.03283642887118707,0.03343208417576403,-0.025011511891812017
XCL1,0.016994997511674433,,0.005897774184157599,,,-0.026144413201612225,-0.02284902840260168,,,-0.016786491356434036,,0.06793693272933728,0.06042224560507808,,,,,,,,,,,,0.031894941097074296,
CD58,0.04066019684630696,0.04434518341997067,0.03219015673059523,0.016939207219693716,0.015331677770220122,0.08136252149984108,0.008480587278754203,0.017460658949428404,0.3036527723703544,0.07930445807346491,0.034666662081416486,0.0653412432852753,0.1221429323740951,0.023004130817617287,0.017392701831046083,0.11165928371433217,0.10988571031698599,0.05901048857677126,0.11596673712530774,0.0677172780583497,0.00425608949526572,0.013258794913285347,0.06543758527639279,0.13228063474814963,0.06741862171244371,-0.06219910471330252
TNFSF14,0.036495287586740324,0.033519972477716334,0.003253548728305942,0.018631744853888098,0.11066359844350765,0.03468099680321925,0.054131692425593216,,0.13816934655623384,0.07644146955456588,-0.0038261575612016604,0.06416412629433971,,,0.018181965685131623,0.032644789752365934,,0.05864925948167006,0.008972269196957403,0.05320040446432086,0.034951187726086665,0.00622745657408292,0.09089427550515396,0.10088154730133993,0.08334601020273605,-0.061021209565964914
CNTN4,,-0.0004921822930878325,0.06796337201376788,-0.02549418824588068,0.08362733441810566,-0.013738419881630385,0.01597919998764353,-0.09999781380668027,-0.15027779345180584,0.007832120846395793,-0.00010045690049173461,-0.09076076876560982,,-0.01386947350964524,-0.0200698367115708,,,0.09695870830899717,-0.027178704996418942,-0.0047245531495800075,-0.04742191058440396,-0.049212639649917254,-0.012618726732022101,0.07268675108855666,-0.008372747300768457,-0.029505298568846355
NTF4,,,,,,-0.004184670403277471,,,,,,,,,,,,,,,,,,,,
INSL3,,,0.015980697110950372,,,0.03049440166361855,,,,-0.0031600839245743595,,,,,,,,,0.07773531718250547,0.03976742361863049,,0.038908808526050685,,0.06548294685871292,,
BTLA,,,,,,0.021130696168668035,-0.03808453405782183,,,,-0.03382002072822774,,,,,,,0.03409714655228231,,,,,,0.055340230760926874,,
MFNG,-0.016295873479938206,0.04992992386094105,0.08310094838956457,0.02597301968705775,0.07237881420154407,0.030864366025053727,0.0759061162192265,0.16810879218269456,0.17087130032165762,0.04108228116049163,-0.004121047399047068,0.01531975832873882,0.07252191138297993,0.0006312812383245722,0.06915775397338507,0.036823801951131836,0.12171138981046822,0.12487481352466502,0.08168704817100797,0.0215919409307085,0.0037333969744490366,0.04124977863339481,-0.055908524933131545,0.15999116153372267,0.12314600536036063,-0.06549010691709761
ICAM1,0.05502811321812443,0.08006082556434287,-0.007293552507281583,0.04443636927935177,0.07038004977023417,0.03977181666300817,0.05900462498911523,0.07798386671292487,0.24345447185237687,-0.007982601408636238,-0.014405632177618881,0.05609989633175068,0.05392468549690404,0.010789997167111829,0.03414051422515308,0.03407523527960689,0.0482927190468041,0.058671891454698415,0.1069525668866101,0.11215044014169098,0.021281927220517163,0.029864314589138262,-0.07515259172195092,0.08182259427739652,0.11355152235759514,-0.03423367725507694
PROS1,-0.02274144645107373,-0.004698737881843018,0.0522285769993274,-0.011459698909464432,0.04519639654552903,0.010129705192078368,0.09231965971627949,0.12165049718987823,0.2539137160910152,0.0033934583026128807,0.008627062385045013,0.004175007335233149,0.05125486025538862,0.010476553845592715,0.11244304692752416,-0.05295150193244338,0.11355619970076956,0.003111333860089691,0.03682309811749358,0.05778213858604739,0.014687232985285365,-0.028670417944268032,0.024772731404720888,0.06310796369685949,0.08042386085938337,0.06122586232048086
CLCF1,0.015725258744655617,0.10849835046446533,0.04481814131077018,-0.006135325564418539,0.09624977670966939,0.045636190804832784,0.047652975598626614,-0.0074046794125041115,0.02097598663556889,0.0028027049470154444,-0.035975160624465964,0.0010502717231737192,0.06626502738512044,0.006798464890307544,0.12675472042104238,0.0029507594480726197,0.012007254162423762,0.09447186671612186,0.1005736741370186,0.15490464916767863,0.05359775251380557,-0.01078520079288067,0.012122019934155038,0.05251744147991705,0.14508777474962495,
PSAP,-0.04823445050244677,-0.050960406976710636,0.1012136235854,-0.003617555968150902,0.09734896608336915,0.013576260803019427,0.003590305263246095,-0.15396420427094834,-0.17026709862514322,-0.007257626421526055,0.028586641985885456,0.07930407888950466,-0.08760044845681877,-0.14901756822581755,-0.05756978652088376,0.22202059424619933,0.08066793808731597,-0.040349079043272756,0.1240490475851837,0.18109705136349571,0.0188254903457732,0.029207587750122856,0.037051422865445736,0.2050030308739841,0.13867431083664883,0.03693831567041267
EFEMP1,-0.03859343677321958,0.03316217533836876,0.053196496957178714,0.06103418656179844,0.12836074226938166,0.1294065502478041,0.08277278708604875,0.06891083286986213,0.25969957405620964,-0.014183020003720332,0.030756742998611,0.0737539922919579,0.06188860564857009,0.04165410060063942,0.06589351948185095,0.037678407478163034,0.1688788732680571,0.05776178497959781,0.11444865015392572,0.09088488673580282,0.025838338209843662,-0.014472627489564328,0.042813094421739736,0.01218843373761239,0.1389419215111895,0.06676744486803346
C1QTNF1,-0.0038275694774060173,0.05763857912233902,0.07757216107890635,-0.01844245525801863,0.023979852615222404,0.008947265372159707,0.040597637542677846,0.12325313320894919,0.19017301735408654,0.00941383145899855,-0.007920411478358815,-0.10226196907140161,0.009588334018729409,0.07698821204576164,-0.03250418004389123,0.12103304939068192,0.012221211153150542,0.03269183667828137,0.09963171112101563,0.04924976201394642,0.061032029313354386,0.02251921155618017,-0.03744092268219851,-0.08466055169525596,0.14269480418231623,0.048136036330848404
ALB,0.05287323626919174,0.11822154531941159,-0.0007110141287378389,0.15431310965932987,,0.056935921494083906,0.03282303179891065,-0.03262496379742816,-0.0273091194319133,-0.007830472700249178,-0.010640124209072744,0.07019168803242679,0.07062803891194457,0.028406228715784274,0.013255165119487548,0.04889998265381944,0.04134164368584178,0.09545293084217465,0.04240942821657831,0.010713063181938943,0.05864961574558534,-0.06098203913467261,0.12325207376261059,0.021245221171309118,0.05008722985035514,0.1436102533253516
CCL13,,,,,,,,,,,,,0.09080823911012675,,,,,,-0.019142868046878963,,,-0.01220942393471868,,,,
EFNA3,0.07454571075023332,0.01967567823749332,-0.01460924166450789,0.003984207869796569,-0.06218093145938748,0.02931662299721839,-0.015762193196434113,-0.0360864933790804,-0.2029688427586115,-0.025887776007034135,-0.031614534872785316,-0.07618633969283398,-0.09087938310042804,-0.002916086525640635,0.06935812887878161,0.08935426962401719,0.003015738417054943,-0.03334203551811965,0.06604366052696087,0.0019291138866282204,0.06781300067521699,0.04310359388473541,-0.06218863688388232,0.11492547557005582,0.00981301962574983,-0.03386365779800275
DRAXIN,0.018001752814884874,-0.0312528799077991,-0.014306957654450956,-0.0070936273743911656,-0.026351453680438158,0.009718511154042365,-0.017498161170381738,0.14637681004946282,0.24592683412463848,0.034981622111908674,0.0005948834548071951,-0.019602240869999482,0.10052749659279146,0.061507237594392056,0.11674511632679097,0.12213066351132895,0.05397377000156323,0.031849288033848344,0.024284361949821302,-0.03195514320036657,0.05801894887708899,0.001984467149579897,-0.00795469870435237,0.1515176206185748,0.0691839258298656,0.06116750683424874
RAET1L,,,0.03768135860843088,,,,,,,,0.04940300455985205,,,,,,,,,0.017105039265689976,,-0.04098318704496177,,,,
NPTX2,0.035373934938441626,0.005684223698756332,0.03707921181052317,0.008078534317331834,0.030075238001689868,0.0696492124434478,-0.06031457512380748,-0.1424359329103237,-0.28953390373105337,-0.02195187988991102,0.023101500584493673,0.1306165032035752,0.06638702415280988,0.033061389272464076,0.04826969759108232,0.11353765799493279,,0.05832424099338769,0.07040418772226696,0.17426930687954928,0.04134484993757956,0.047854016962702695,-0.05759073570309884,0.14131514369592796,0.10192787635526042,0.002891192610699273
FGF11,0.06585607807693218,0.10592848962908344,-0.022090586488155824,-0.04963208392635197,-0.027087445836846406,-0.016445086425591976,0.08776843723628404,0.1437468952009649,0.19695835193193353,0.021860987401068253,0.009583407481989636,-0.0027501692011088303,0.022758532353293594,0.09963294034923345,0.06608705084101754,0.0855788178157387,-0.05832413587676785,0.0750038140820986,0.03163036302239528,0.04561524355729443,-0.030527558422626375,-0.04264092836826927,0.009242657077310559,0.07191888689545653,0.07809063654972392,0.010196601239046407
CD59,0.021268068342551526,0.031470999685939784,0.1499539802920537,0.005724789808492632,0.05491918246989176,0.002883781542917448,0.017617880534826654,-0.07812284346521152,-0.15752412744576944,0.005519413537552135,0.03414048023713313,0.01673973490986672,0.1101785271239949,-0.0933024881743319,0.14498196095439805,0.1554592174978246,0.07779781380367484,0.08360468869246193,0.14806757995842193,0.1605380248093039,-0.015802065282731315,0.06775957636601695,-0.07655381133037568,0.05597390710997929,0.106590337205553,0.07594289830497285
COL9A2,0.07413704897966568,0.06902761103023658,0.06757163505504901,0.08532047752517301,0.10136633562140444,0.06364646996353929,-0.0033338057854378133,0.06966573036495217,0.14930852423970056,0.018568961106391293,-0.01972865480272153,0.07943557265946383,0.0782638916457686,0.04779019379698033,-0.0029326203086433166,0.08294488137168948,0.11030767533376554,0.03973742145530395,0.022417062300663065,0.022644879502443215,0.08281930287587541,0.002913409915691562,0.15602603777218335,0.2204540456295801,0.03996256012656197,0.06566205095859616
DLL3,-0.02979184231338973,0.005176972364692078,-0.0212147484532017,-0.03475868759283138,0.047787292384152,-0.017736710743514787,0.008691637599600519,0.13375664318281827,0.07895430445452523,0.0112722884860212,0.016805541525779844,-0.02222928296986173,0.039353201442586104,-0.01423122565471542,-0.08183665847204372,0.033413842124740994,0.024062946514443236,-0.00405688373131199,-0.047883699806930684,-0.022464662467507744,-0.0036217935414434395,-0.00021586471056961047,-0.04448704861033441,0.04391055449906656,0.016060759111255415,-0.027276782851260173
FGF5,,,,,,,,,-0.03911869632128884,,,0.03634901129666434,0.05107778478705915,,,,,,,,,,,0.06327672524254237,0.05601941425636837,
LIN7C,-0.034568883664994686,-0.034626524869328205,-0.012094409994208131,0.02658708221551869,0.01479375050426505,0.01995572353099592,-0.022971343118922353,0.07054724871094309,0.12819975832824254,0.03847010859450869,-0.006010048379617382,0.0010612131621675776,0.04812538393859899,0.05278503567191469,0.03812167538132509,-0.03611122853704416,-0.018030919270150728,0.04609274543240605,-0.006265915792909164,-0.0236371160001307,0.00042811210822855125,-0.03654319321393502,-0.02593228829652937,0.05177369897735403,0.038590801173633005,-0.015290516839960881
GDF7,-0.0024416012480060812,-0.020766380368414064,0.014097615986855895,-0.03793112523982217,,0.04847680353452662,,0.05104412419238561,0.02052129320448393,0.023207122586374203,-0.026483252638577502,-0.01586192888626064,,,,,,0.06279110786735263,,0.03359764538235681,0.019833168254283405,0.025455439389532444,,0.09312004547135255,0.05440055653925824,
PSPN,0.031838899776591836,-0.0061384987979004055,0.027722922498926963,-0.04214995277153346,-0.03624701744526274,-0.0009391200804285767,0.006050838624817156,0.05454645052729926,0.04469675932873015,0.045138556169319395,0.04021165320677185,-0.023160854248403147,0.021139245838005173,0.0636567694662717,0.06377412294653574,0.16803363441009825,0.0984180242909914,0.057399364673122975,0.0423378559581714,0.04076046730250754,0.011394907992640839,0.07554034554801722,-0.03451501881765806,0.18212599469179633,0.12432671543952045,0.01653624691410643
ANGPT1,0.06465590643561689,0.0073228690900570634,0.14238045872160318,-0.03331931129907253,-0.040973562909983996,0.03160569652962738,-0.03268519827176972,-0.02274858139832312,0.24668574689090092,0.04163345325942876,-0.005079416023988479,0.1083866986825773,0.060467090085314895,0.03133483544530731,0.051657802284494146,-0.013111650961335144,-0.011462723456709846,-0.01446840260918336,0.07210183835726186,0.11100876757425832,-0.0430066506531618,0.05895949419536126,-0.004073314834012666,0.11797007335242189,-0.010521126138538736,0.03424532851354524
PNOC,-0.005923507733418134,-0.04176052382962876,-0.02473634694087338,0.02005272548417914,-0.05040566202179291,0.04094272990847591,-0.0543972957319557,-0.08204593608987394,-0.2532764304395774,-0.00750938117652571,0.0009504514733127075,-0.08125263162651129,0.13330386099482064,-0.025660129802880155,,,,,,0.01580501052843532,,-0.0127053959558416,-0.055576870097418005,0.08610029702867023,-0.0025529569704923517,0.03278919391720848
L1CAM,-0.00031288316447300473,-0.07883181958313452,-0.02078950142001832,-0.01371731074960562,0.04348352242782049,0.00694925665567991,0.014808780327415064,-0.0005070676257009608,-0.19039793709714053,-0.037118510914775325,-0.04676220628054492,-0.05614370800926892,0.0953022297831219,-0.11962196195515225,0.040535739889509974,0.07529212207734225,0.008132950150336502,0.04568256959468546,0.0887564082549922,0.07326819964140736,0.009864221403137486,-0.04133046341385141,-0.05301394345468822,0.005917294975319083,-0.049351003306772376,-0.009618254136086862
APOA1,-0.041886210417888314,-0.02720555708485061,0.007070736052466615,0.02637117992872839,0.05961084021773369,0.0036866655844566107,0.04147742090621954,0.07587126527326635,0.0910475763467011,-0.01437476631230814,0.0010568762307518716,0.023266932879297302,0.07331210332325976,0.033813115639881666,0.05991316997594077,0.018049846299163584,0.08874069436380302,0.07587325648507862,0.06520034841545506,0.09909657811368562,0.058250337461830524,0.015384082053991839,,0.08904927145833207,0.012824936141860798,-0.0018110245769477251
PSEN1,-1.9522508948721262e-05,0.03190889042928943,0.07154778421827922,-0.007223777124411623,0.00662533011061138,0.022039180735672542,-0.02602630517902893,-0.02198277434633686,0.09019557374096178,-0.009935058479352709,0.0043316467441734735,0.15269738198395783,0.04576904094373736,0.11287696277463632,0.05160491815244535,0.11169976463775826,-0.017605641576531224,0.05953849928309516,0.08693882781313085,0.130583138436767,0.02305113616782249,0.025404761218699976,0.06923573958035227,-0.03108779644213205,0.1280331717498093,-0.04607459732808132
CALM2,0.053382526086032625,0.015796843276567798,-0.04075091573091247,-0.022995165972134326,0.06731064769009469,-0.035335925009919965,-0.058444643806303334,-0.11854001597367371,-0.3446322158101661,-0.05595774657299533,-0.05228625418007332,-0.07987220601824038,0.11379139082640288,-0.08992780729917982,-0.018115456194935372,0.02052038369978802,0.014638622166239464,0.034629546255486345,0.03708288129564284,-0.03500439446044944,-0.015479967618880914,-0.004005043042043597,0.03205257358081808,0.0018548999826288187,-0.13569525762626303,0.0460578487232748
CLEC2B,0.08140167610234798,0.014217147187004099,0.10001423780113064,0.018605530428416183,-0.08108654397164114,0.03368772986532989,0.06361603231078806,0.029077863788593682,0.24019242798085294,-0.013733365600940628,-0.03566578644821911,0.03262156487742157,-0.006428085466432598,-0.025649554070067727,0.07806518938720158,-0.1263091900718452,-0.03310877605009935,0.0433386338898389,-0.0019989051481171397,0.061108546960357245,0.012951755047984998,0.03533422446453311,-0.05136563477315594,0.21557687834371195,0.07360443817476296,-0.009395040547026293
NTNG1,0.01070071912547313,-0.05263429429488084,0.03081140643682843,0.002559289211684791,,0.07207266020787129,0.06310894949184478,0.04652753782902287,-0.0049910947387318905,0.017659761200622303,0.04380952594721911,-0.0014386500296668058,0.08295399074732629,-0.04526329492211112,-0.0028728045803183624,-0.04847518084343168,-0.03600801843689704,-0.01937255547469095,0.059304108500368616,-0.007281998480766833,0.13287843172283134,0.011761418391498026,-0.034398664967374044,0.12009435261494412,0.03421820683791773,-0.024513133667007
LRIG1,-0.009266483267650368,0.011225682901251234,0.06955364341327959,0.026751510175122905,0.03444194559928788,0.03408833823280982,0.0740248880741554,0.03908149345276799,0.16885998519099474,-0.0062295446476426115,-0.005063563924180121,0.13639157903252874,-0.048084553987230313,0.07966299525000244,0.01923745366154712,0.1828933266930365,0.0044883238968511825,0.0796253580207316,0.08067409350784467,0.06538458745285809,0.03726637996499656,0.018823344267058444,-0.04604931967491058,0.01445670089443323,0.021323384692784435,-0.016990793167793457
CPAMD8,0.07560532789830604,,-0.008989910087148124,,,-0.004972414119975952,-0.03675309819114026,0.040452861527848515,0.00172597618154579,-0.003534761221633864,-0.022424830668431785,-0.0482965411866761,,-0.042808907209147526,0.01588327711086271,,0.010461244572785347,-0.03379697926790856,,0.0163718034928674,0.009859065752409933,,0.13093375640845673,0.07588318473794213,-0.0382417493315621,-0.0015663864131479142
GHRL,-0.04555025565838031,,0.0273687468567443,0.0548092872115848,,0.0318196635632478,0.017317352258970076,0.011861642131759465,0.0014953726600678509,0.024830567348371302,-0.02415226826517212,0.017584877727925188,,-0.022850335663522264,-0.0064252401440775195,0.06285881104065429,-0.06362299083510135,0.04665398296493834,,,0.08800268548966421,-0.02137400301993445,,0.13194717334986053,-0.03771775828305508,
NPY,-0.056615121063477554,0.005888287164257908,0.062418445511984715,0.00407748405855506,-0.05660962302752981,0.002507710313575198,0.06157001895535453,-0.06077853949060587,-0.21852285038403624,0.028945457014772486,-0.014176184234810877,0.022737083132618865,,-0.06983583437113836,-0.03042650380595787,0.07092211451831926,,0.010827311032799772,0.06315693162463637,0.08467643779577066,-0.005464837334901997,0.0020938779552584297,-0.0166549012191615,0.09086060186409074,-0.059370489494746055,-0.046104860810846936
MMP2,-0.0019929460635610945,0.025903507231026354,0.14834207962398546,0.062076433064684355,0.0015498934850779456,0.08820020637456269,-0.013233495204562915,0.07518531308293955,0.26557708812090813,-0.01415295080333029,-0.0071115306438368124,-0.002248762963351512,-0.13066143961885693,0.14931055921379496,0.18962187055177218,0.20499491373879106,0.13076890471605532,0.05246294824711376,0.07962189290183888,0.12255124146172432,0.039157217737826155,0.14399981295969588,0.05100631085012716,0.14573015075834736,0.10747255155653977,-0.01346037433079517
LHB,,,,,,0.023081273325431865,,,,,,,,,,,,,,,,,,,,
PPY,,,0.10945669982117608,,,-0.012502053264623938,,,,0.0026279639101403065,,,-0.031871404951185,,,,,,0.14427454088955477,0.1581596675660953,,0.07531612992620397,,0.05556124393578107,0.09986088731655042,
ALKAL2,-0.015999821030691305,-0.011161882322230136,0.12794795358635155,-0.006426325272956464,,0.032708866706896045,,0.0536975698712827,-0.02228188412153914,0.0046692271387930254,-0.020991362513001696,0.06764320912592894,-0.029482207365024854,0.03879915096920607,0.028991244440225265,-0.013541048900742892,,0.015302104589718951,0.06893401597331274,-0.02548188272785939,0.07312529310764698,-0.012978794746602683,,-0.002588895471296921,-0.013593088893824249,-0.06488957521080545
CSF1,0.019365234070502054,0.07238604701979191,0.03722632230088576,0.014022141161839339,0.0741207004234919,-0.011963707770131645,0.051008559930628423,0.062499681670115506,0.17215515570810444,0.04305669138839159,0.031416887690481204,0.10375835908993818,0.17850854154622917,0.10391059477699402,0.06679157554220659,0.12368475787277042,0.12973985629695492,0.03211535392051225,0.10689219791337295,0.11667617141858833,0.04181759237985629,-0.030579871631835863,0.006297453446020688,0.07658129449573825,0.09283996438498232,0.036280791447916017
SEMA4C,0.04125127681528688,0.0029470102917480306,0.09790875983067299,0.06317753981628332,0.091674799361548,0.015494848256596869,0.017918401835873322,0.07068066328538036,0.0515302247633804,0.0015445071706944927,-0.008238939421883812,0.050862370968540446,0.060840140834064686,0.053914093977531934,0.0380619018019825,0.08207365827059061,0.08729062342749977,0.049033876742642535,0.03646105297585591,0.07097432432778472,0.008726514651662283,0.040981688182606134,0.07609316236038144,0.19320532920505434,0.015025597974335406,0.056787019055269936
BMP8A,,,,,,,,,,,,,,,,,,,,,,,,0.07899353179548402,,
ICAM2,0.09462843322742677,-0.039350472285231725,0.13478445421497628,0.10063072086223693,0.09264085422031693,0.04310745838897903,-0.0014289956735627195,0.09682454867743055,0.12958840971002458,0.031283376175167944,0.01001418309422418,0.04239424978004085,0.1222270317868248,-0.00200486627092783,0.1407211701968475,0.07658641667093367,0.10992973241004407,0.07282017526581828,0.14787079068306905,0.1388490295218994,-0.04178508109795164,0.09566601364223734,-0.09554656421508732,0.2093043281810357,0.06460021514401124,-0.007389237101817495
SYTL3,0.03702538283861932,0.01029294273632294,0.09855692500430098,0.03252694992295749,0.02118643350740307,-0.04735954069967519,0.03880364839319653,0.005635143666038711,0.17664764063716282,0.02227798683783331,-0.013220852425083694,0.053719620729310184,0.035171768032594315,-0.02094776007384006,-0.004244295320317,-0.02687493300512793,0.15626514663920976,0.037149696905390606,0.04966922533058294,0.08903632157676077,0.008741116783144194,-0.036784717801626995,0.20436130335226577,0.12120481293385549,0.10939335052795648,
IL1A,-0.044842611212857104,0.03215170419470503,0.017917856492248654,-0.018555138090813664,0.019362587349840237,0.0009748515044398302,0.01707473928623172,0.05168338510089688,0.08047262067211969,0.034690537992409835,0.06676127437399225,-0.000398963691395144,,0.04007753527307735,0.0925486507563663,-0.05314946935900447,0.012780412505464783,0.03963808301591572,0.05458680464482079,-0.015154570536903838,-0.03207912280168963,-0.02434233788273131,-0.059340089169574374,0.05945182037950026,0.05855353236055201,0.14824213518645554
HLA-G,,0.025762846701564354,0.03216389983715967,,,-0.021683171900534377,,0.005990394722215776,,,,,,,,-0.02448584206051792,-0.0012889990600163312,,-0.0050053859119388285,0.011503102038622546,,-0.0659691245177669,,,,
PGF,0.010839593093333292,0.01548360116700499,0.13208849743478873,-0.046628980451026016,-0.0261045871388116,0.02977805043939775,0.049744483750270366,0.0752870600935034,0.2237139079799644,-0.0452578511417056,0.01193163973853501,-0.03962832171469869,0.13694306391460903,0.05719410969907903,0.14448773272338675,-0.07017714134330319,0.03251989676125424,0.1365282409823327,0.08143800246498813,0.12245772978225654,0.0007658181764211712,0.12131462647534373,-0.03168145448855133,0.13826782642713725,0.08975755801669533,-0.015394405090183328
LGALS8,-0.0218437858896926,0.001380512957429578,0.021708734138031673,0.028754385737458244,0.058200059180032016,0.0344484491791335,0.01376669767497373,-0.018586435590868238,0.08490670176070125,0.0190724292420412,-0.016042968931983672,-0.025353056759456243,0.07811002106419669,-0.020997332023281128,0.08628484549911847,-0.033549557588100076,0.0660662466899835,-0.002224742256760468,0.02168963004933352,0.0584215988638406,-0.014980089808451913,0.08614003679567514,0.03129359727787029,0.08399981641754455,0.034802617491578786,0.01218972672274087
DKK3,0.03157281794809382,0.03254101730109841,0.054072455042656016,-0.014712061693534815,0.08431614663280425,-0.05685441961963905,-0.04419431426143742,-0.1584511737820727,-0.3176936433522261,-0.004918302293661608,-0.0189416871955627,-0.11904976459899984,0.040468985443113475,-0.13787713905082954,0.08265549242131451,0.102541352567778,0.04833768422574402,-0.022973785111032395,0.14733033062150305,0.07754567394740472,0.033141800632695416,0.08335328411603457,-0.06419712060054775,0.20385857525067005,-0.054202895065462144,0.012450561091934568
COL16A1,-0.06851789083268424,0.005766285424027563,0.145084882426711,-0.013889930286338944,0.07336002958730599,0.08301215363451465,0.04161467151046235,0.08670310795521272,0.10882961402334355,0.010310279181425434,0.022938462145469123,0.13891269136008294,0.19084286965611794,0.14692648303197828,0.04578389806393072,0.14859343905546488,0.026739419889980087,0.02297672109483851,0.056522027286447715,0.1737369297359131,0.07581801011784996,0.03447003360241386,-0.016775793688136555,0.18002702250639022,0.12805647195112874,0.04353049070333265
TPH1,0.02588526403993805,0.05944992699956344,0.04503407046267093,,0.05383244222404395,-0.04321658704587789,0.05008558668033205,0.031620283918678264,0.03595275951543703,0.014621141632243461,,,,-0.014228563696988505,,-0.1614395344019753,0.10978672680107751,,0.00741782021012739,0.033898120655953004,0.04415411729185025,-0.008098625892005837,,0.13434090616043395,0.05209544328518205,0.001172464533349635
TNC,0.0406287648758989,0.09363505866140218,0.05335892874423331,-0.05935923527956936,0.10711964045658885,0.05997119622828008,0.032002207562433445,0.12698132045773075,0.32614437457337875,0.089197795607664,0.011235387181809454,0.13042745004694029,-0.18730927939514433,0.1148651828989388,0.06705266935908542,-0.020394825133588698,0.13003274343572407,0.05289529838577132,0.054644350486423555,0.07842783735865345,0.06479156796297234,-0.06064901534012924,-0.037601834792507144,-0.012591872587479349,0.060569406327157,-0.03719276168495287
TNFSF9,-0.02632054391333672,-0.00040463893503227966,0.0500204491790084,-0.03692545964093965,-0.04570381523113912,0.06606281934043044,-0.02633308149872266,0.03138235166908857,-0.11887907695591875,0.018597708821505497,0.013614753999687205,0.017053120421821593,0.06196642862443566,-0.031489503858642645,,,0.02003417094029189,0.013154202056669452,0.00848136976275476,-0.04979564520874194,-0.0017361591631403464,-0.05637280129268922,0.04820072531024668,0.02670184083791179,-0.015799411106706386,-0.0066169811155397
C4A,,,,0.05439596085228153,,0.007902785493515278,,,,0.047719219996310035,,-0.046384201224750475,0.02631789122591271,0.00730409387717408,,0.031047372513230004,,,-0.036735886198646706,,0.06906923125243045,-0.0006979548355234099,-0.07588933064805571,0.075795172757493,,
CNTN2,-0.008586562892173962,0.0008983757778360263,0.058988220410958345,-0.033106196600886664,0.014173782244298778,0.017549096084510996,0.05288610426452388,0.03887188884322634,0.0770760335296306,0.01973484175824628,-0.07443502011565489,0.21121676078565232,0.0012902553157816787,0.07047420332349698,0.0013787979994027313,0.12390675623542742,-0.017326047219544886,-0.02864973289297267,0.02933160090045008,0.021187708431192397,0.031050287155868807,0.014016902146232033,-0.04655555587043462,0.033125653229452,-0.019033911611545825,0.04864657868717133
F7,,,0.04419946503898916,,,,,-0.023164611864256043,-0.0014676850011330542,,,,-0.002378437313915941,,,,,,0.000984470199647446,,,-0.041918509416656854,,,-0.02413492699724692,
LUM,0.04066245823489677,0.014211348616586407,0.15372228756496653,-0.028834920565037562,0.013933786516169097,0.05440149579830468,0.025304843071322455,0.05867893886891355,0.24526855770335163,0.06617696244943046,0.09536041530923711,-0.004477360017184055,-0.029746831862050616,0.005413568077590057,0.10048524530115009,-0.015565481649573816,-0.055863831183941094,0.041972605283259766,0.1024213313186033,0.1239182316043778,0.03846203391089346,0.1643821673762004,0.059276958428355765,0.1165779797848784,0.1881701944704705,
IZUMO1,0.0337733870492801,,,,,,,,,,,,,,,,,,,,,,,,,
BTC,,,0.03317394877394853,-0.04694954111631804,,-0.01127435220876535,-0.004125764839039683,,,,-0.017859380177050604,0.06376995711478356,,,,,-0.028647173944992253,,0.006940918137198333,-0.06177007839030932,-0.05268320217435153,-0.006484021185797854,,0.07545951134580586,0.09799117074643311,
APOC1,-0.03511758698830152,-0.10934597674683709,-0.0498300578455222,0.034657194576336994,0.00884884477271313,0.05982697908913328,-0.05640602810685024,0.10856350298046318,0.31250746799593215,0.017799545741356938,0.0037473356308639484,0.16009401395639608,0.11392352625431466,0.054757209137180636,0.07957209134798417,0.12987333063959802,0.10304188354066265,0.05886013525847525,-0.056494394896103056,-0.0379467415220037,0.012993454742998772,0.0002023964527415736,0.003968005228390097,0.09405331327542099,0.051261665439623405,0.04705378530469243
PKM,0.04790068354035233,-0.03170031404923367,-0.0292245994828471,-0.009219238552420017,0.002068010177043751,-0.010959476726238607,0.06437369206777038,-0.07908054486356933,0.06552250487113799,0.03317310549487247,-0.04701064119277175,-0.09527097913258706,-0.0415247066516258,0.11552192759936396,0.04376747577175504,0.05877595631500325,-0.039893828179650294,-0.02081137365573995,-0.013248349292485513,0.017930697959414047,0.03171236153165833,-0.11229045782765891,0.042211530627653246,-0.03918718347706161,0.05604711364165405,0.05099958030302735
TNF,,0.011362333846860315,0.05617415478120602,-0.012703298347673985,,0.008317114201571794,-0.014994259614434999,0.01147073220482206,0.015176317062870912,0.040677885236632357,0.016678343967626436,0.039444399414262726,0.11814032603841838,0.10850954280121508,0.031152675355043968,0.05373324393991902,0.03472693972900417,0.05012789860601264,-0.021554853724403786,-0.023189806487521628,,,,0.15856179780541999,0.06314888941781167,0.00028901989131342417
GNAS,-0.04023811780495559,-0.04921604257170283,-0.07552291845237609,-0.056033064508247146,-0.09375490768638733,0.015309325493651557,-0.04706633663963646,-0.07834863014206887,-0.2834689703589536,-0.006951160616451066,-0.02344660435587427,-0.14889041468362374,-0.11416666561684692,0.1635313218301705,0.16065776540479462,-0.0030413083694157735,-0.030739663185622577,0.041435273181101774,-0.08709469525346664,-0.08925891045416474,0.056257340647087525,-0.08638985699233062,0.0013918333084318964,-0.05113212261450164,-0.06599493732613854,0.010353729036784132
BMP8B,-0.013917576790957092,0.0883373381232036,0.029623205113781467,0.00400125930724996,0.03779443315800132,0.042779720940362684,-0.016509712378722455,0.10144915057646924,0.05852044640061337,-0.053845747983957304,-0.023445531788659872,0.05927161075408301,0.09410211633004367,0.02175296364039147,0.06348830714669028,0.12013731363498957,-0.014497257754864764,0.06715048180871618,0.09620203736072877,0.09222745786018181,3.9895160941242494e-05,-0.016998756425599358,-0.0015360608349591777,0.14379005760735136,0.1509804686756235,0.01859720727780469
LIPH,,-0.005511762082769462,-0.0010124382086513209,,-0.06032630209609394,0.015846281441069622,,,,-0.00292110509472037,,,,,,-0.0762805640004166,,,0.062211811265214925,-0.010280560118488746,,-0.01628607152744892,,0.08025387742488896,0.03188665966568149,
CCL28,,0.025785316646485208,-0.013804833095202536,,,,,0.026385287119176527,,0.012490724199753712,0.07736220504258948,0.009388416163808404,,-0.006087792943670981,,-0.024939630600224496,,,,,-0.02664350266456999,,,0.03477343201316631,0.002757864298087858,
PTPN11,-0.021693133711844295,-0.017983709810572974,-0.0164616298551861,0.011655747442618073,0.05166052660861542,0.008401485416941365,-0.021257712200317816,-0.01949821243078821,0.09929613023567394,0.017475187059559052,0.023530497122865483,0.06446969843307551,0.06019021157993291,0.027741430896378826,0.028546817402627527,-0.014777395656444568,-0.08191015562748707,-0.030191913726696336,-0.028363485332939878,-0.0738472290166465,-0.08907249547319107,-0.010179354754756675,0.07116658987054168,-0.00569206351008928,0.05147300967196419,-0.001379608963215909
ADAM12,0.019973348316314428,0.12293878033712494,0.1658492883606166,-0.0357279076299815,-0.0009058181013848997,0.034682398074347504,0.005093465009937002,0.04361169961434278,0.15354207003285933,0.08461931520827261,-0.004225802807686692,-0.010472932538964452,0.035192999753550704,0.0419451296557725,0.12803453339062384,0.08007819853764372,0.11007240438192067,0.12012832450159878,0.06852140216623523,0.09680528989144399,0.007138000316866545,0.03728808531924919,0.06057949961023759,0.080514330823612,0.17824323278252743,
EPO,,0.018107419597317608,-0.011931719433294803,,,0.02499895821623141,-0.032912204364803715,,,0.019379875351354114,,,0.007136071474317236,-0.01793689258985584,,,0.013033203220657423,-0.071522401124392,0.0002845478481506069,0.0003224702478435697,,0.02708618540486084,,0.051302682020662724,,
EDN3,0.03745749718229767,0.020512991449568044,-0.009032588664063217,0.02847437799403638,-0.07116066863343025,-0.0208818017291869,-0.002738089618984655,-0.033224890339358305,0.06880066941865556,-0.00866746822200551,0.055296922778150855,0.008537072510792474,,-0.05599693260216362,,,,0.011875272781188894,0.047939939229168345,0.13132106479597896,0.0811508378974899,0.05452742424083213,,0.03291092696670867,0.06509882916242955,0.1104149016951196
CCL22,,,,0.050329863401297976,,,,,,0.06798408890991782,,,,,,,,,-0.015108461292355354,0.12414244898267382,0.005435382566925119,-0.012795509274003806,0.021271812335866627,0.05912232229580461,,
CCL2,0.09481328924337026,0.0928628528931035,0.16561727640830315,0.025811180774562282,-0.0087694761765096,0.03279733962830628,0.06439157729644389,0.06782031586591733,0.010804293293355588,0.06927985973332323,-0.024965243447585023,0.08403221434135806,0.13631545842508438,0.08317467705378964,-0.016716382583974104,-0.04557647124146009,0.13118719065375906,0.04231192951146351,0.12974767600515658,0.1334409786606707,0.0054789264248149136,-0.019436327482044116,-0.064424513911089,-0.05056354336114848,0.1682859268805464,0.04253153628391666
DSCAM,0.055295954929241456,0.006466773945880837,-0.012390263352438483,-0.021118565945145464,0.048224925335491546,0.030609354219887093,0.11671460654282141,0.05917856227182952,0.05997226169195706,-0.0340030519821141,0.011416566723783658,-0.025478273583618725,0.10708719990508593,0.049186835963718444,-0.00034465596242296687,-0.002316703646946189,0.07558329493127,-0.00026071906708579495,-0.03052130305134553,0.01827263621457964,0.05293208665024241,0.04662290290505809,0.01819520877695802,0.01937785275020981,0.08666379652948777,0.03395713556864231
GPHA2,,,0.07053810331081904,,,,,,,,,,,,,,,,,,,,,,,
ANG,-0.0392613777227358,-0.0010988400208724765,-0.02636340718686808,0.06430002065166479,-0.026762541360281514,0.04218229086210962,0.0008550984318000213,0.0142190452105659,0.11663929210650276,-0.02585557007702415,0.03928978126906942,0.03748521988834234,-0.01033575637627958,0.09224395731014136,0.006896557618482194,0.0196986411838184,0.031056404606949903,0.04017716016785362,0.10115024273560616,0.00029110842355426034,0.10969681682422866,-0.014153852386160671,0.042336249162520545,0.14959647470398307,-0.016079608887566453,
FBLN2,-0.011283808255028666,-0.02567304616223605,0.11554167275861309,-0.030786802373890212,-0.006145725372143748,0.03695327481782849,0.025348277878525633,0.015396495645779298,0.03887939588296189,-0.06498571247786626,0.040846169923094755,-0.010257463321591167,0.1000693394845305,-0.012406004462547991,-0.0009105632899491356,-0.00017767702679686903,,-0.02485929509507296,0.08699217253408138,0.10432033127547935,-0.026242445130581302,0.1723276914004122,0.007387552376721534,0.14288744843735357,0.13281073794647574,-0.0498730217332875
VTN,,0.0024629190145311897,-0.03293433367496938,,-0.04010187308346796,-0.015412584263439154,0.07720123381223873,-0.013066422300724866,0.009929503793864636,-0.02958041144721668,-0.02186044475602113,,,0.033547483504184766,0.07072150119781068,0.0355860417237157,0.036648614148245336,,0.0991867509132667,-0.0407824066700854,,0.019038786172148655,,-0.015058807498017125,0.028526120329510657,
VEGFA,0.07477750208028656,-0.03663694881976122,-0.13830487207786454,-0.07390080665490477,-0.006956444814165847,0.019613868647596636,0.05520814876440019,0.05760010295716524,0.12799738618699202,0.04861738216156663,-0.013296442434643571,-0.05525160056504624,-0.09956013127481349,0.1303882852755309,0.10370985968941786,0.0013378614787213623,-0.11231566391252855,0.05706818227520555,-0.07221983494979292,-0.04429088153470416,0.012498616755319266,-0.11405813457725489,0.021289190923389198,-0.2922583038015025,0.040639755860338814,0.05138021291221408
F10,,,,-0.012711301628997982,,,-0.047495395738680515,0.010177607831332083,0.06379544140098949,0.03303123510923448,0.06895189653013045,0.06402115037027721,0.00854619486445465,,0.00037981019289764047,,-0.004717784327037232,,,-0.03533091004506598,-0.025749911476128474,0.10411317566186182,-0.014281125117824258,0.10817657647888138,0.05483904683861966,
SERPINA1,-0.03219765842054174,0.018750334431883023,0.03276070781491646,-0.024247426771413613,0.006372426584585239,-0.003270896796300942,0.041472438281411825,0.0901099057340404,0.18573759401092907,0.0477990153470611,0.03572121232466036,0.10522078304134207,0.10174042365592378,-0.007139788827672765,0.013347286546777,-0.038206719919236465,0.08883301977769284,0.09515736260582383,0.06332632777563797,0.16528711826445042,0.01420238887390758,-0.019534783328120284,0.02876174924003921,0.09092576029172741,0.11940635008310693,0.01617697683142487
VWF,0.010842503499750498,0.04849007401103264,0.20747822586343476,0.0009092648930029283,0.010589024067526999,0.0468406816864327,0.029456042237159235,0.07794234037246302,0.2670254045272128,-0.025907817305182504,0.05257453852011057,0.06172818272267479,0.09497017668167057,-0.050985510771666805,0.10057713522889385,-0.08744070174463071,0.14105294184818568,0.16276298392409563,0.1009763861747123,0.1592776484154952,0.02732336196420743,0.15186446840346937,0.06691068725054164,0.11844803045711798,0.06401094187056822,-0.02060584756797643
GDNF,,,-0.0028682668681230383,,0.005221899956553109,-0.0014320804928593801,,0.1055575980971277,,,,,-0.011482717214814126,0.03409183843149593,,,-0.01394320164979234,-0.021011837217553588,0.021762925078085693,0.06528298266529611,,-0.03210680382314313,,,,0.004773123880343609
VASP,0.06309155975753045,0.03269759003234159,0.1414181207408298,0.0008457671357060782,0.05728049761106399,0.08715510031774289,0.05158681692643549,0.06897062971278516,0.161492899103309,0.0021546462207007407,-0.004888041231922067,0.026649879161612572,0.08675196578066455,0.06417095197251445,0.12141451093729294,-0.024121343762898404,0.04952049775211372,-0.02705647248928117,0.09533372394403891,0.08722393433972257,0.05863228176912467,0.029309762487437135,-0.018705705567922098,0.11989325471215855,0.10294652835401548,-0.02839591023732666
ADAM15,0.002591969971401633,0.05424273969845492,0.06915872731474769,0.005656706288944158,0.02479604309791644,-0.033295102541422955,0.045708989324571715,0.11964023804635796,0.13041823499454228,0.06260228081278586,0.014799659635430864,0.09665365739623279,0.06292047225351108,0.09509240082573563,0.005567532418557935,0.049290512953993726,-0.004585330681379407,0.0322898959082,0.08542483452216215,0.06926413562910279,-0.006247450959073076,0.07969021534646265,0.07486782838109994,0.12110975009927288,0.12094611327817414,0.05318373177674656
WNT2,,-0.057292713650158825,-0.07267417545089075,,0.04986824134556489,,-0.013743480388726182,-0.02693143507557689,-0.1598376872136434,,-0.031463027940492896,-0.06453848213285661,,-0.0258250691114316,,-0.0017299881778910049,,,-0.04079809436867584,-0.023701144237998812,,0.039521689105206606,,0.03991665456546565,0.06522443688472215,
CALCB,,-0.04958138563036568,,-0.0548764785526959,-0.015804590520371115,,0.01991456455612738,-0.02703480414772545,-0.05137686906074963,,,0.032333414263947084,,,,,,,-0.0037659220649421447,0.02461470621566442,,-0.04835748237794193,,,0.009488972222806676,
OLFM2,0.01005773940353152,0.022005209288010117,0.024560506200979635,0.00547631752425772,0.028081878743552915,0.011084958193162036,0.012617204204327846,0.06719735462334869,-0.12690592561695424,0.051933635919429316,0.00554599490685221,-0.0717052646131651,0.03519747333460809,0.018997414764763333,-0.006039350733190682,0.1751827087743404,0.12730754036628258,0.058237655723017784,-0.07177099390621243,-0.038102270248353345,0.07607374456059277,-0.01446974773138985,0.024442756437924144,0.07218859870169221,0.10650914034562758,0.03212425672030156
MFAP2,0.0538496872003229,-0.04213424961578966,0.19943516117399482,0.035179859708782665,,0.05187648757915624,0.025790922973165268,0.13705806509298363,0.22235786436706956,0.02677765038734644,-0.018949118437645966,-0.034281385295375104,0.12947031756981853,0.03121750965902529,0.2758873148186346,0.01928675502465797,0.12957427156612938,0.17659048218810197,0.08669566758513993,0.06620999854200446,0.07611745090161322,0.15440920624044913,,0.19659542136025637,0.12310442392041002,
HLA-C,0.0020508557254677695,0.04814845760304026,0.09266205555577771,0.019833438612550287,0.15332588513908393,0.03516983935656601,0.03014134619615058,0.07822022452356042,0.3190965267473976,0.0017075103941579248,0.0016529292355642812,0.09102593445266294,0.0773817897377575,0.1343653684963676,0.06707250793361967,0.09469959054535874,0.12600432076126103,0.06605564747254183,0.11024320840576982,0.058418391936381896,0.06569691556204815,0.02611580714069979,0.022377926522967446,0.216189662582131,0.05444190749087162,0.04014274669276446
THBS1,-0.03644173485483888,0.08146232701446642,0.14052126680175633,-0.03308113172213094,0.021450834319844913,0.025497290176365914,0.04767968745509254,0.1096814844932767,0.10960556588829322,-0.008735497388689699,0.02544679846595448,0.015694693222373074,0.06169045073759014,-0.009337996037006536,0.053524076609017465,0.08454891440262764,0.06662120832317144,0.0940334147694916,0.15600637669288278,0.054127118714825034,0.09096495718950982,0.05196534342541487,0.02132582075248399,-0.08578485480459791,0.2247011548931404,-0.03125297228240244
HSPA4,0.04714409707847237,-0.002501658134026926,-0.02954372371172161,0.027984055137624538,0.007588997595468216,0.033145389135396795,0.030028990807892487,0.007277114179460885,0.09723150178538624,0.0056917268884756666,0.037932656899954925,-0.007624256937793413,0.07200834847640986,0.02110944025062534,0.013753139812339027,-0.021370840275887704,-0.009762852906007268,0.03643829266732178,-0.003172833833133565,-0.006270283281975813,-0.03496713506930273,0.04150940532848374,-0.06059989687887729,-0.03451730002070431,0.0016415172986307609,-0.009734048303338225
LMAN1,0.1259322394339376,0.003451367772263927,-0.0007280015374187477,0.026050479277095077,-0.02722416260235624,-0.009953626617483046,0.046746511137266404,0.05635997281691263,0.24909928461411474,-0.0013148641204827286,0.0031012566580249255,0.019931943161094267,0.007512621123213256,0.07401515196762612,-0.01657437005481988,0.03220871553402096,-0.02135976873075272,0.024799638066956512,0.058636700389592566,0.020099500417683512,0.005310234396345655,-0.020822408656500008,-0.014219549085912983,-0.029847957086732494,0.013255477801493987,0.045866159133234406
LYPD3,,,-0.0007910453792391252,-0.01595451100661633,0.03881115409775743,0.08991267668625154,0.04725027674269846,0.06697597628069175,0.06056417451422735,0.004530897984983283,-0.03674443113057274,0.009650299796459509,0.09996340683057292,,0.02223433097921787,-0.07457362693785942,0.12148493242969886,0.030286376637288493,0.09472039868608731,0.03473852738139154,,0.024299143638903717,,0.12022460795112934,0.12523107830584285,
APOE,-0.1377282268685867,-0.045917552246985696,-0.06662883955430646,0.026406942104250156,0.16681987543502608,-0.06058915824447922,0.043859834074445506,0.02119939265828309,0.21222192663417516,0.02761923671263529,0.04280442667357019,0.18007269856666608,0.06915420750776094,-0.005318777858546919,-0.0036423701280751362,0.17310568583211894,0.08166692411038885,0.041853583072845486,-0.017565064491680164,0.03475263771708585,0.018264930238891922,-0.010843053914634205,0.10847565380010961,0.13590459114475897,0.08252900837596534,-0.018112907317756968
SOSTDC1,-0.0385914180022859,0.03533731091890825,-0.02212758737220435,,,,-0.008939761511835398,-0.06573025824121402,-0.01321814159809246,-0.02489361650623859,0.009619007869411172,-0.07074216353483374,,-0.07940639453797348,,,,,0.06637227968811801,0.023233713516149147,,0.0296041204662893,,0.04672188071548933,0.05463654394043317,0.03966630810616615
ANXA1,0.0522832570651315,0.019148031861668822,0.12055690644841413,0.0023961567988176383,0.05160139527614818,0.10656287283298972,0.01748850093069524,0.04273182762518261,0.32383629383629225,0.014795284403183248,0.036985803451655905,0.05123295413358808,-0.04051157914117351,0.05938404748241289,0.0522636215989183,0.017473985116899213,0.09959437507214138,0.01779630106299595,-0.006974008379500083,0.08679396558980454,-0.03211852042418441,0.018706066047451016,0.04741251873996136,-0.05633165237960052,0.014297863347013502,0.1569246195752464
WNT2B,0.007334738600462221,-0.030067369911301663,-0.03440028920724565,0.0063820128843654535,-0.0535407528993,0.03987444142329565,-0.005135769301696964,0.039785200437815395,0.06986329579026525,0.08224712361478377,-0.024278978318049114,-0.038065035917354204,0.04375662234287039,0.032253206413308325,0.06407943253453834,-0.0009870279266308362,-0.12557177629513483,0.032375693869738306,0.09112786371505753,0.033726073965440126,0.04194851436852815,0.0529069037240698,0.00639837385030705,0.15167854243145504,0.11697222119052764,0.05211967719016905
AMH,,-0.07489153912840686,0.0039114515835624525,-0.039775428600479834,-0.0060419770860984465,-0.007260719837436498,-0.007332563045789236,0.005542094814071091,0.11314861124818448,-0.013954356917660027,0.014844811636159793,,0.0369484260489017,0.039743884625467026,,,0.0073958626951539635,0.031732032688524085,0.11268708043867218,0.02091389523459828,-0.021213974642720533,-0.005086861368056155,,0.08273454581709222,0.009480494783850683,
GDF10,,0.005036836660924161,-0.0159555232478331,0.049509228471494346,,,-0.029714092907714977,0.028743008560921678,-0.03650312339190187,-0.011064237926346967,-0.03690858838267235,0.02151032703746888,,-0.06492826600321103,0.07342124992809886,0.09907047365007693,-0.08314361608753346,,0.06980395154784184,0.01608457063518683,0.013371044139585037,0.08329827402109238,0.05533709412857051,0.016895099860926487,0.01727203168288389,0.026755955887327345
EFNB3,0.0554578521448964,-0.05833154024222031,-0.00541308424970131,0.010892472944354836,0.06004362028494694,0.02977650313197593,-0.043279801717251105,0.01759595357963019,-0.13807318846912367,-0.012017820265139355,-0.0007863878953460121,-0.11681366023775377,0.04834710295517774,-0.10123640923539938,0.1355357636616787,0.05270497338756084,0.11127717516362456,0.061226479999477605,0.06049657082707691,0.050964904314194516,-0.02479652517255638,-0.017130865708256084,0.024143924721857907,0.14661521875923425,-0.034919243606053314,0.021198345284484835
LTB,0.03317088656159758,-0.03098152854501769,-0.002309417004309505,0.0973680860514,,-0.01584928991713009,-0.0006524631009781877,0.02864211244368848,-0.04436323566487801,-0.013629920208493698,0.003690966448905058,0.03266586921073722,-0.009365644780766446,0.07928793172794224,0.03354457555652137,-0.036330526831002546,0.01518814480316911,0.10119356111530654,0.009265620214616325,0.007507955300434262,-0.017183194459895523,0.05077531514445409,,0.21705453666577051,0.006932947344788509,-0.06102107254221247
ANGPT2,-0.0008595652354781276,0.044422493140693534,0.17482115408877863,0.038001376696668476,0.06656926391680111,0.031209648556818535,0.08139358920540042,0.16785121839395356,0.3242269794926448,0.015684789262772888,-0.018477123866358486,0.010507402107954403,0.0704602601543589,0.08094667492181175,0.07284150138269975,-0.03275208994725293,0.07537775128430503,0.1378445171023895,0.09148728450876713,0.14157117575879283,0.014025339960707754,0.0973769913764326,0.06589212810097485,0.09545522301066363,0.1469320878856263,0.020041846764373993
NRTN,,,,,,,,,,,,,,,,,,-0.012018105359625596,,,0.09939745074445701,-0.03398301532179415,,,,-0.03688910995630858
ADAM17,-0.046596788671795626,0.01977250908352459,0.0072196493718060945,-0.0057936483745718356,0.059050370231763766,-0.03744751015021804,0.07287256031350486,0.10156918882093185,0.16280968283401834,-0.004036106405841147,0.02745425074466091,0.02351505455236815,0.07259087257903037,0.03956723135631208,-0.08994462213102658,0.0912076460361429,0.017850756101472475,0.05607361986287316,-0.007381713427107796,0.044071715856894275,-0.033384116057680865,0.016730792391487684,0.06815607756466291,0.04720847903755421,0.10760271948184504,-0.029301411345209617
LRPAP1,0.016128129183413803,0.04309116095496802,0.06588283303920554,0.006959856964610607,0.010231702521338941,0.03387509103533968,0.01015128310184064,-0.04632405986810609,0.14708600710251585,-0.027163359052407715,0.030073350781758764,0.013911902479862886,0.038345566578992026,0.04362419212637124,0.04623076003264653,0.167455160346642,-0.032176643140999085,0.04291098438147567,0.07747266621809394,0.08557774164859508,0.0738403193631683,0.030140944407746516,0.051387753640111666,0.10728923643190108,0.02656620929857638,0.04089112533158535
NID1,0.012048033195291909,0.0181274990149091,0.17824027592364777,-0.004043769361730996,0.022551114250765072,0.0894439076607005,-0.0028618799635700314,0.12798082548367729,0.28841944409064807,-0.03923626538147029,-0.044190625615986856,0.06806015873255856,0.0987325766468907,0.04449984321874608,0.1088549025748499,0.030088047935778694,-0.00477564001644027,0.10681499518013936,0.10944029322569589,0.11298919971190129,0.06807464253845744,0.13978413562474454,-0.04190776643174759,0.07796057801785045,0.158745588611912,0.07889195526188131
