,MGH258,UKF243,UKF248,UKF251,UKF255,UKF259,UKF260,UKF266,UKF269,UKF275,UKF296,UKF304,UKF313,UKF334,ZH1007inf,ZH1007nec,ZH1019T1,ZH1019inf,ZH8811Abulk,ZH8811Bbulk,ZH8812bulk,ZH881T1,ZH881inf,ZH916T1,ZH916bulk,ZH916inf
IGFL3,,,,,,,,,0.06757986713149997,,,,,,,,,,,,0.035630777159657324,,,0.06993996988385835,,
BMP1,0.060177630445597576,0.03480526919754957,0.12967288856748377,0.05575532682073528,0.04610293542947184,0.013653204995020261,0.08458513227173148,0.16984869259751825,0.2602404627969129,0.09186754696534805,0.0005248172281672232,-0.051752393097284494,0.2508251015681389,0.15457870659151512,0.10607438998246703,0.1266482284448883,0.015453903278912936,0.1348204937449524,0.19486335012075343,0.0952396144408874,0.1251733495013239,0.08214566446344183,0.10437666558183349,0.13290760672671775,0.12276729705336471,0.01571050886418794
NDP,0.07976463556456656,-0.027305934942209262,0.03577529753410936,0.05089445366220158,0.015112265151675115,-0.028375956218879145,0.00927127224092922,0.02263550790912334,0.061677604783213755,0.041665954737902,-0.018490011906065557,0.025005382550059976,0.09379078403005327,0.04902340197677945,0.12270620677117038,0.006197125634914303,-0.023493587993184,0.03955145622738172,0.11601353589500803,0.10428837091705949,-0.04680622956650171,-0.016523644383638833,0.053105525541320024,0.0883431541103479,0.06063522031870095,0.11331470096399873
TNFSF18,0.014775673084442309,0.005211161977423359,0.004897713982943875,0.03150507420041786,,,,0.001014880085985615,0.041305178795408286,0.03487983986529378,,,,,0.06057278069693262,,0.021823089506583238,,,,0.03515907245830804,,0.01067867440393492,0.024364546983772255,0.036897100352798126,
IL36G,,,,,,,,,,,,,,0.08679411727548692,,,,,,,,,,,,
RTN4,-0.07874179316399618,0.004776257937685582,0.062400200344153965,0.031283612872692344,0.04640916438132133,0.0727849480123771,-0.03773042128705407,-0.25960543509380823,-0.2652733384546198,-0.05435487176907077,0.01600302170377902,0.011470672119803542,0.006731104272968403,-0.13989035245803197,-0.0026663575525646558,0.009650153772254139,-0.03258003455159347,-0.06774508195887712,-0.06242690247602913,0.025877884336207274,-0.11147256006921158,0.07213945358646548,0.0039060157311809375,0.01717256322944269,-0.1568517371240276,0.008411514406692178
HEBP1,0.038053074400614714,0.06989052838909998,0.10844540972006012,-0.0006008061456631041,-0.026030520062508822,0.0351450566407323,0.04298039815992612,0.10815813526025145,0.1886888069249063,0.022289707340647443,0.009741934239753194,0.041732056553467664,0.046435490777232934,0.024111478488124515,0.102763946929993,0.12890671665735817,-0.07565685330268603,-0.058797221675136305,0.11238487365544521,0.13182530953422808,0.04216465189054602,0.08796867559358724,0.022230542372370488,0.13786620849190365,0.030862635047923578,0.03842785284618641
WNT7B,0.044819273279568486,0.021380210961719395,-0.06721966897058991,-0.017541325368293816,0.050699013416163334,0.02130005125418774,-0.017529905638403204,-0.014774900666548428,-0.1553309065937114,-0.04538606484520149,-0.0262785685705574,,0.010757691701969508,-0.01807698621188366,0.014336395318628223,0.03116450097174626,,0.039169405756915195,0.012603139451622248,0.09301777126218802,-0.01344148832583235,-0.020568953669847845,0.0750053371904047,0.029675092537090168,0.06277941012737205,-0.06422138259969798
PTMA,-0.028355093352811996,-0.013211379907713835,0.06356365228394474,-0.00932449174308668,0.09887883467607125,-0.0018362806022150858,0.0050623047620426895,0.34362024020447063,-0.12160515360492528,-0.1310222121629408,-0.061760834212620686,-0.001177150489023376,0.22232565616051228,0.16239374997747352,0.054111446125806234,-0.17355882986959237,-0.09457578133191798,-0.1142063435317949,-0.17760948537655463,-0.03527177090118464,-0.06089504890196173,0.032242635789320344,0.05237655819357289,-0.0022078796432194476,0.14325326612859365,0.1020401477157914
FASLG,0.0671588341534515,,,,,,,,,,,,,,,,,,,,,,,0.007137361540983275,,
CEACAM1,0.0817063116134174,,-0.008307464113631157,0.0038858468544455873,,0.014967371973857606,0.012624500051376086,,0.07820943924604017,-0.0241033357803272,,,,,,0.019650561586912196,-0.10643138901687864,0.09893297361554365,-0.015009753145331923,0.021649704670693944,0.03837286390143472,-0.03605885986757702,,0.06534675733410963,,
PDAP1,0.1117741900799506,0.0006747826832912676,0.05259998146476914,0.0684329569698671,0.03728355490684142,-0.005855772601084569,-0.031768373514869566,0.14804182682541941,0.24016110386696576,-0.024739026936251202,-0.062136085619801454,0.06847859065546877,0.1696785694322911,0.06245045270662925,0.08263001414829539,-0.08578286967405122,-0.006088553038730154,0.027145595899951695,-0.00020822241594259258,-0.0008756093701628523,0.02286913777960554,0.03831895653734972,-0.011201325287302458,0.040084868949015785,0.07192714944260223,0.07362648395281804
QDPR,-0.09965185414861748,0.03373583143996411,-0.04470463498690433,0.007812295560354348,0.02081704509735819,0.005603603062922577,0.03273146306328511,-0.07508084494607702,-0.19448060692940586,-0.07494334594166575,0.025247376704246732,-0.03212516807463971,0.13431221695870615,-0.01586804099245552,-0.022626252839248864,0.04238779915627426,0.03450801890442412,-0.2507823919221975,-0.0037181603036156867,0.003481918580869512,-0.09480929265288288,-0.04469137256740778,0.1000714863985865,0.14056103844045684,-0.13756593794648236,0.1654293029596383
POMC,-0.007433863235752577,0.09730356040962837,0.05846700602034891,-0.0037187141220378452,,0.04853155843208656,-0.0245783858167042,-0.018002082145137262,-0.015300343147111853,0.0495961466497355,0.012663351373665777,-0.03680966877901559,0.02372923875283912,0.01916697516928367,0.0212739210460455,0.09265446592918199,0.05536102642657298,-0.06765784493611857,0.08497285485380071,0.058377487157811304,0.058694853589124275,-0.07704354514096964,,0.08991790375364393,-0.02873195493579729,-0.11752717714649813
CCL18,,-0.0035240474427340857,-0.06478777884135327,,,,,,,,,0.02232603477872245,0.1323534758992513,,,-0.025481061902246346,,-0.013176345942828108,0.0816049842944467,0.054685900358624036,,0.005121453246778267,,,,
CCL17,,,,,,0.0030632325396005937,,,,-0.01698361521138293,0.025027258936718047,,,0.025753109232055416,,,,,0.03393952262054216,0.038398144076015585,-0.019685741709399986,,,0.026967192939689195,,
VEGFD,,0.06869248643665049,0.06027543123689547,-0.004354552358245739,,0.006331542712233894,-0.02324418344267979,,0.10891849155231828,-0.019847518470838005,0.03321007719826737,0.030748966362983673,0.037488860050569714,-0.03614496634905135,,-0.06846943752998408,-0.054287916963993516,,,-0.020835676186212536,0.03506935212876466,,,,,
TNFSF13,,,0.0365199232120264,,,0.04643481348246306,,0.04482209774441692,,,,,,,,,,,0.04864442766850372,0.06424901239458408,0.08703547396752698,0.03435051449296711,,-0.0009103373714824855,-0.002962782618486379,
WNT5A,0.029298541821866194,0.038075928446133035,0.0695418245938625,0.04982943213314208,0.07930822588038376,0.003016627287245197,0.09928193651161843,0.22568205394536092,0.2454289323583555,0.057106748694800924,-0.039846482025899216,0.08591455799718936,0.0573442186585647,0.04711213267920166,0.06848682911861304,0.05309739126154629,-0.08667857223421117,0.10291945972439186,0.09275079422177383,0.09096708746708164,0.037975160146371666,0.026331060889335567,0.24782648165963828,0.11789154228240542,0.09200852504440685,0.00548615413646794
CXCL8,,0.016734487535151787,-0.0333144785127424,0.04027471987640328,-0.039963199046726385,0.052777379751110416,-0.045959183675598474,0.0024604327976304277,0.06855243657393215,-0.02277679413776108,0.04339308758128974,0.06009960658050127,-0.008185344178952347,0.07133721415956168,,0.01805276208865771,0.09771062503237847,0.06234143997884962,-0.029021515966556742,-0.13651724787774228,0.03872398313882624,-0.023324785184484213,0.04459847783673651,-0.03402543114239171,0.13635823575169265,-0.05574279438411272
GRN,-0.1963901417590988,0.0043625911938667645,0.11266577022265786,0.038822434185963615,0.06465175903498879,-0.03654065222880641,0.07590934639337202,0.10929877129004974,0.2701473906420069,0.04872140646353045,-0.016636331290276654,0.04111400502065676,-0.035223748662782536,0.06119687743037513,0.05243891769401296,0.06568899023121777,-0.008094868828247424,0.0337170500678448,0.1342868482835428,0.0673059093532403,0.06306693708272665,0.024916533412089655,-0.04261574725721966,-0.009658268082349541,-0.009631793843496734,0.0178337214340122
MIA,0.09283197703918482,0.0515275362680542,0.07277992969911405,0.031530715951917865,0.07500790714200843,0.008052537986280682,-0.01163469279569934,0.15628405969786235,0.1234313458343625,0.09621441611415031,-0.020019480191007372,,0.018567778775293118,0.014553509877715096,0.07727733793063377,0.05999061042829003,0.06775276001276065,0.06491159599850528,0.15024003685393486,0.12140453903737876,0.08533578463921108,-0.03175209834702993,,0.2156698712065535,0.09405958135251559,
COL4A4,0.007135429332962075,0.056135756711965454,0.086865312501429,0.02431060763015485,-0.06456311915970776,-0.0034339812850407315,0.1527988339406457,0.09588257975530788,-0.005450059782046821,0.018826152677545543,0.016483118611514264,,,0.11432133653282299,,,0.11466893244586443,0.13063743355487384,0.0556853516169742,-0.061497813759247205,0.02754551417128764,0.03909003624539711,,0.02188009811529932,0.017584339636961367,
TAC1,0.051888760218240945,0.03556544972119582,0.058428525429254044,0.001086328768985967,0.02599564112042798,0.005670396474189268,-0.03874133131030124,-0.14949184473817456,-0.20968255197246707,-0.10075899449339941,0.028952212386163665,0.07237001376859387,,-0.12450844679637636,,,,,,,,0.04102201472367611,0.01801316806158121,0.02919109720918532,-0.08461493479662452,0.009597330551575942
RARRES2,0.19089614631695961,0.04476276803776378,0.027721860463138365,0.02494611264838622,-0.04792278513010241,0.011215579690617455,0.0548915107858405,0.15634952406727604,0.2726680297507683,-0.05726900968549869,-0.007921609064215913,0.05628998319955979,-0.1483525797864581,0.07213091558836889,0.028572746780365834,0.006680114902366053,-0.03203714064381222,0.07823512991750284,0.12002957944220276,0.016698543210819886,-0.03094274575130492,-0.05407050275029846,0.10112041343569775,0.11420812990054269,0.13291086130684174,0.005258748530531025
FGF7,0.07025368628683748,0.06553082371169276,,0.09040553198295322,0.008485772825100792,-0.0032055286973587814,-0.039071414522122164,0.10482148692957376,0.1058386380226052,-0.012974979922905744,0.04357058500998534,0.1462097627767564,0.1021677469666819,0.007116258092521244,-0.04728215147138763,0.04345507754967299,-0.03397420967517329,0.061969828055790446,0.0007959045555684548,0.02329384124487384,0.026578810986480836,0.041138437428009975,0.0065936518843201656,0.15936718761906954,0.020972137377276306,0.13465952116931829
EFNA2,,,,,,,,,,,,,,,,,,,,0.02294351773100389,,,,,,
HBEGF,0.0381322268512783,0.07649201724208199,0.09700257283373993,0.06933141774237492,0.03464875332149018,0.0057621514495054,-0.022617424293909845,0.15772609701453633,0.10940951388689336,0.16270193789060258,0.006339741865479008,0.05965310159495884,0.18730589930771405,0.12773514496890678,0.1544029071795632,0.09054776403835296,0.10007143875993149,0.14182118759638687,0.03580476682121628,0.042952403944795936,0.05127624218535158,0.07017312939746936,0.031561168958632806,-0.03150875124638159,0.23791357903970384,0.021448128965257416
CSF3,,0.008060559664321662,,,-0.002291352815012854,0.014060578862634007,-0.031132892179069508,,0.09626696982407253,,,,-0.005631007760630919,,,,,,0.07946846445360442,-0.007560172045190421,,-0.033284369014720636,0.05136225274986959,0.04607529113431806,0.13207879390193994,
PI3,,0.027707732767976036,-0.05013112562618399,,-0.004666676793384726,0.036243539844691475,-0.061730459823622574,,0.056842240984197656,,,,,,,0.08231337967133602,,,0.02383800776823691,-0.08794549646572651,0.047083663614352324,-0.01373921799282364,,-0.0046840139872124115,0.12153217677225082,
PCSK1N,0.10035726864271596,0.05157344788952891,0.01662656240566469,-0.023955771664695057,0.050581580998927816,-0.05662714646697118,0.1251091307679657,-0.13600034783682466,-0.1312614093276419,0.10070035128315902,0.02047906554447018,0.014528487160622355,0.08692166087542803,-0.09777768449520478,0.001104893386493055,-0.016337737515652123,0.009399519216826871,0.042708327670230105,-0.030695179034176266,0.0135472890008999,0.015784297895539465,0.032675451938893214,-0.12363154442669991,0.1086413100221256,-0.25034869078836586,-0.109991424426422
NTS,,,,,,,0.07988274156609299,-0.0433136871833285,0.050206223224109114,-0.015553380130610433,-0.04258139890103706,0.017888599698196863,,,,,,,-0.029253508383791624,-0.03658864652142646,,0.0808307737592617,,0.047424109376337474,,
SFRP1,0.0032883628705214405,-0.0026875168224126367,0.04861889955320198,0.029773861452477852,,-0.027109162023371092,-0.06750632321693759,0.135580892904586,0.0509839325800357,0.029704576508306973,0.015143836505916943,0.08382869699829654,0.07470255002987713,0.022502453478976978,-0.031644588166823584,-0.03305301423880862,-0.029060896076952444,0.10155187939189625,0.17633260477356677,0.026889315186266076,-0.0453160923017804,0.028768234538631986,0.03973417814736067,0.031287794524552215,-0.025354412582448523,0.12118221139141627
CXCL13,,,,0.007567202621981818,-0.047475388439974814,,0.02292709425128991,,,,,,0.12534481840753647,,,,,,0.05132877277818452,0.024400693899207963,,0.016222289704819367,,,0.12466328213874021,
MICA,-0.045506172963731266,-0.015431821264464712,0.04891343642458409,-0.013843057277861155,0.04157875875106009,0.0935583671512583,-0.019283873720223634,0.06637819291731782,0.16285642969285685,0.024604951051829797,0.06666402361538347,-0.053962682629522175,0.049332639458882784,0.10910140056234988,0.07561076559072993,0.1273927967372632,-0.044688378493702476,0.15283542518291618,0.14052049191799068,0.12331404973312973,0.09986420162645633,-0.029203966368127512,-0.005373441979952239,0.1270043562790004,0.08188947118453227,-0.042565762943687926
TG,0.07163725018417876,-0.06381071996359541,-0.033740697730814166,-0.001025562102529807,,0.04019364801871848,0.004474712999435538,-0.06978632967374523,-0.020083702283855302,-0.032846960038543434,-0.00043511326522803094,,0.06352657319418682,0.05693338096403355,-0.0012787810321590772,0.05231061786910751,0.05503008990944996,-0.0015153921798922573,0.018652815008884705,0.028504327419505905,,-0.007960945367683388,,0.029363178416977505,0.016229373523270675,
ADA,0.0726225184813521,0.004243139718090018,0.08284717470798332,0.05823581441579525,0.013685886898500327,0.003052993817729107,0.06336515041441253,0.05656556311285623,0.20276136175360554,0.0247659076428146,-0.021702115509111088,0.008552788743134823,0.18573300147409902,0.06662886300230372,0.09925109011208372,0.017104444116279906,0.09249499812668958,0.08963293400726141,0.11669282227940904,0.09345196610575869,0.04542813615245559,0.060360296481722024,-0.06243362156636246,0.10176118294415401,0.0038626118407560604,-0.0398694181539808
LAMC3,0.06454957874032759,0.10591299485011459,0.18640515728274804,-0.03322679637035461,0.10471098061512606,-0.016596097463615695,0.0676009292171923,0.15981258295259637,0.16926973101887968,0.010794990934540307,-0.07285949481217707,0.04848337540708326,0.10140720215120286,0.03618446285741308,0.13905015750506622,0.11764660015976042,0.0973078940053152,0.1846173165600838,0.10548054249419327,0.1614817436662228,0.08505519033380571,0.05216407438054491,0.10718440203581354,0.04815864244858757,0.05698996662952627,-0.010741558909772774
CCL7,,,0.011987065626073483,,,0.029359363071264615,0.020242510014316182,,,,,,,,,,,,0.07631500343934226,,,,,-0.018795472374357827,0.023562625936195077,
NGF,,-0.036867292905243716,0.05592064506601509,,,0.008017197255748244,-0.0648950253628202,-0.014864608246690546,,,,0.060785249102082495,0.1622705547648284,,,,-0.02285980925520508,0.11200052680894332,0.057216748118332265,-0.039781712837773785,,0.03176045670709167,,0.08039247828332757,0.07761274823663596,
TNFSF15,,0.026868102105955145,,,,-0.06134529281160467,-0.007786530823566544,0.05113507533013829,,,,,-0.004441954016841466,,0.07543235790833983,,0.06422259917257601,0.12596737298864089,0.0788116207357142,,,-0.019086121617748336,,0.04625391855760132,0.08409112477541347,
HMGB1,-0.057871487550800654,0.10091535994461506,0.027245895330966642,0.05173240976946927,0.04237200366966102,-0.10039271405434738,0.06987056573791521,0.22582615921555757,0.25348556679385775,-0.02908832715661833,0.002991368203574482,0.013250326546758095,0.24770622851176374,0.036807081622255815,-0.06730295081701257,-0.18040654997457517,-0.08642174942270364,-0.10961723474229876,-0.07854811586334895,-0.011661656616877817,-0.0678394976317033,0.04636394473582541,-0.0653708378917435,0.008060169707075661,0.0689197499093873,0.10834260598351675
ITGB3BP,0.024823098282877466,0.008244053018303388,-0.02831145951703928,0.037680159425372436,0.014266693949026911,0.029927686888537586,-0.0028917704182650173,0.23971335308260813,0.20551550283810616,0.049048699098345465,0.0007673217806772227,0.02082194514022563,0.13358525066626,0.08421068306933831,0.09908528583047671,-0.014990587164415764,0.109337953032479,0.07775222156019115,0.01758927247798251,0.06465483697840957,0.024804421905616342,0.017280913970598128,0.07346731140541563,0.1601410942145482,0.07250706294788921,0.024919781450476877
AANAT,,-0.005724249622211585,0.04274798847740303,,,-0.007510897669607758,-0.047726031508928776,,0.008525981443336089,0.018767814626835463,0.06319499715134852,0.011335739069710525,,0.07941162531271502,,0.006483551042291811,,-0.05226623004656839,0.08453977925912536,0.03936132415992948,0.07519370457061013,,,0.04791224603680031,-0.02834333336600549,
RELN,-0.006832845438394003,0.10090205300563118,-0.025949382463696945,-0.033980029827939434,-0.023484769000727747,0.03254640694161728,0.030958413556441057,-0.03297678317647199,-0.07844124639064769,-0.011742043167128529,0.0022349657524109354,-0.0314596862249903,,-0.0034844904169966558,,,-0.016242946086665527,,,,-0.0889337525989517,-0.06490138432212761,0.13999591768227473,,-0.019767530115122653,0.07931726149990194
IL15,0.07713054402003162,0.08535305610221218,0.025609085717084465,0.02499411433844982,,0.01984007485956221,0.11380260991198848,-0.0573174113191122,0.07158071982464452,0.04324615703581264,0.021739901414287503,0.019447776879831187,0.052321341387004186,0.11478372762762953,0.05172045787345417,0.03009053026514832,0.04155342051495816,-0.01157166100136525,0.10801943408221931,0.0587637683468382,0.08116855885690469,-0.05725963102905904,-0.036611070524776156,0.08413706730341307,0.06443755578451486,
UTS2,,,,,,,,,0.0984417699876561,,,,,,0.01738970690435034,0.11788557989236753,,,0.08207117064341245,,,,,,,
BSG,0.15287669582080624,-0.024803388407159302,0.09620413863682122,0.030641565074765665,0.048015829923563624,-0.04013034885706365,0.024722190146635886,0.11273946001319474,0.056099049729797935,0.08312402064618701,0.03445542875914096,-0.029008728188864595,-0.14753844790516785,0.11105278721407051,0.13373717376483157,0.17949551696403154,0.070537364936885,0.17289633775722643,0.2284359156876254,0.07244732887755118,0.17694801968155746,0.027116025980753668,0.12682037068588278,0.15860815189880806,0.10675375346290998,0.04032165013321027
ADAMTS3,0.09890367784924732,-0.03697872239058638,0.057380645296334895,-0.016764948023918383,,-0.006567849398333119,0.049141264460632536,0.00811327106900547,0.25535387038207336,-0.012296821691195942,0.03551508413431407,0.07757487816261723,0.07644890635419045,0.031100993441778725,0.13350259519550964,-0.03840971198815518,,-0.007988538070353475,0.08010850877719095,0.042335322111061745,-0.027624776796408172,0.04773282323511585,0.0674090613708317,0.1835482987899662,0.12649948887320142,
CD34,0.045037728883376295,0.018357974433275307,0.16245343378895416,0.04431868260628016,0.12378358102153358,0.006790316227833245,0.04255548099810101,0.12025376027220824,0.16787293932765504,0.013739671678858933,0.0014187461839031388,0.02630236040644583,0.13479097294134135,-0.0017759680598875742,0.050657292097997166,0.09946390537876229,-0.02478251805238375,0.10508265635253967,0.13386587593616392,0.1314547791834924,0.06903256711336668,0.06173315412193249,0.07431277992283777,0.06980057058554526,0.1570190492183373,0.002142632769837654
CCL23,,,,,,,,,0.045891254172595104,,,,,,0.025929309233701528,,,,,,,,,,,
PLAT,0.15011977678139113,0.13544966851650742,0.186199362276658,0.012930845388890444,0.09460098061609239,-0.007183307813122145,0.004215409092258919,0.24813986411012418,0.21641527462674492,0.174674222840931,0.038000671342730746,0.11717451919702827,0.05077893124336271,0.12074444229066914,0.06682035549688957,0.037598335944035874,-0.0674156727237375,0.10009852281567082,0.06731386221940983,0.12646059505206367,0.1318327767412288,0.06348624811561875,0.0381246112403939,0.11433206650460968,0.09378179913924095,0.04028810087497895
NTF3,,,,,,,,,,,0.02131809095295279,,0.07241045455359857,,,,,,0.1366690352386547,0.10441271681836697,,0.04500086861221749,,,,
LTA,,,,-0.004517815487503425,,0.0017862924727342013,,,,0.02557322759471784,,,,0.06500799934348185,,,,,,,,,,0.04028619101526678,,
CKLF,0.024195989579300595,0.11177320075518136,0.015077496000878921,0.06206329213907794,0.08765741945438739,-0.10948353795040165,0.04739908924357455,0.23095764152076287,0.2402568234473536,0.05738962286104941,-0.0020036309560888944,0.031232128134741147,0.13693653345744952,0.11442294026219743,0.03009979418804695,0.08705526112919834,0.0867838682932516,0.1088250750536236,0.06802545389280433,0.09533790164790885,-0.017251354789983755,0.03426001485874974,-0.04084429701813799,0.1606802189069344,0.11052661123285851,0.004209840946517865
APELA,,,,,,,,,,,,,-0.013683436874705978,,,,,,,,,,,,,
CD24,0.01396414496308801,-0.07693226923425811,0.1121375586370153,0.09490743663302718,0.011958015278604454,0.045392282867372596,0.0364926542938685,0.21164552721572447,0.03231691771144238,-0.02814675117961282,-0.017890382220996943,-0.003801765413334381,0.2561101931024869,0.07463419641255199,0.05872363352191237,0.0257667867413147,-0.0709750224743642,0.11860546663787776,-0.044082130982473,-0.007420652838830117,0.008683572144676795,0.033606687170336075,0.08851535341846108,0.054070380486882695,0.022203369887384118,0.02840835350083386
HSP90AA1,-0.1331536633750569,0.09383635567712491,-0.12246490622126155,-0.04808143636828579,-0.13405995894993528,-0.07280355286092338,-0.11099192989617057,-0.25559644753976335,-0.26023894202564235,-0.012305529904666207,0.01371889677277366,-0.019287869354402673,-0.008345721935649444,-0.11609715142294731,0.04934538026546207,-0.175759475892923,-0.16909223729240455,-0.13196394897404348,-0.19062697488168545,-0.15357961251510452,-0.06685269009286621,-0.02263721537772367,0.00705227576291877,-0.08843637902546925,-0.08338554291929298,0.12504905491786197
BMP4,-0.008794807164049631,0.03672136157857566,0.04916481828586135,-0.018318086929936892,-0.018235645712297698,-0.003143295736998663,0.05301294502005207,0.2721596654105598,0.04864816693752552,-0.034692730712090405,0.018088405780658276,-0.021404766722615164,0.0068375623371424625,0.019930340611960775,0.08551685955093052,0.12554924214820823,0.07977978691103212,0.11154731702483642,0.04642017501920433,0.0837900736774386,0.014303844025483804,0.05261064956708587,,0.11135288461606715,0.047699838044349796,
SCGB3A1,,,0.04284624145852325,,-0.006073784733254545,,0.02999371693665283,0.07744570621128903,,,-0.030947132242227532,-0.04880878993656999,0.019593898341440152,-0.014596638866126116,-0.05652615013039044,0.05555059338792823,0.022481864673164705,,0.06941962713736967,0.044166778397375886,,0.02000548241932862,,0.06568993819135488,0.04194140687081604,
IGFBP4,0.03145846526787378,0.04397036322256489,0.18603634213206333,0.051855735797557576,0.10874137570367037,-0.02286776569604452,0.06166801708718134,0.272396806401081,0.25162224229993274,0.11116467936989624,0.05479198020650556,0.07916772372423031,0.16213905439643736,0.07931625774083786,0.10677797832322336,-0.03528854735924747,0.02386316518845013,0.05725519826569643,0.1508406528959707,0.01840393150740579,0.09699750228541122,0.009895577253208452,0.10442039039954186,0.09663494448542882,0.047521707252863254,0.0034260288440153184
RSPO4,,-0.007730669910534711,,0.10887227333876291,,0.03941176918376523,0.007665173039218897,,,-0.00793049373316642,-0.011120524345853939,,,0.005969277999350334,,,0.1392238790435527,,,,,0.010459948179363139,,0.07185936672067932,0.050365902975803435,
LEFTY2,0.09235580427106085,-0.013426752024500326,0.12830768072495888,0.03727920412268827,0.07648736349279601,-0.009295569866921486,0.07151277846834969,0.15628664776433104,0.20292928185780396,0.07310510870230508,0.021390412996868953,0.060833864523711784,-0.011319963701608466,-0.015249943092460957,0.049449514715227995,0.0298255132743288,,0.0910893643558114,0.03884468341066238,0.006565381766876537,0.09263852908649971,-0.03677233833269932,0.038489826285013906,0.15545556199668686,0.12283608063147959,
PF4,,,0.021828901598878955,0.029498921639268604,,0.01816188331511636,,,,,,,,,,,,,,-0.03605428594448729,,,,0.07851668290210471,-0.053276166874812826,
ANGPTL2,0.0001534942436135418,0.009538420047141859,0.1744332944057886,0.029986975372574304,0.12455819591530823,0.022136354573867065,0.08093314655391307,0.3452951924490717,0.22209032037175955,0.06429681354424623,0.042077509116527585,0.032950050256096215,-0.011010731690607503,0.14139072830209717,0.1607383056016398,-0.08286020544949804,0.08503048203856953,0.04952701004414571,0.15182547754723671,0.1472583342648538,0.004234799119475869,0.023816675748629824,0.0681281902006003,0.03265738664908488,0.06270738798647958,0.040245892236188165
LRIG2,0.04909005154040565,-0.02995801363126605,0.04155068957288433,0.058130936214294576,0.0809923286680499,0.048420644959609564,0.06322359168189018,0.23153760518143235,0.19466075042381722,0.0956283764150054,0.00722484675253626,-0.05121624541371949,0.0580669292920746,0.04301181600581157,0.10719697535909423,-0.01997258716497799,0.058114845688949625,0.08222666527594957,0.08223723632146772,0.19354147945242095,0.0787147362410358,-0.019516644688869843,0.08792599845841192,0.12134843549354467,0.058929921024600075,-0.015370837584932559
ICOSLG,0.008968632602468635,0.054295262225302086,0.04431788160889254,0.017261679146162875,0.05791983687886893,0.03798086750179532,0.024757068981299514,0.12392882164399913,0.13401173680165115,0.05720240881801427,-0.01860751995846296,-0.042865787315593915,0.08905916506358386,0.06442814627782778,0.05994522880185827,-0.06291214937773669,0.037989518107980576,0.051892709053558674,0.09383460762426804,0.1231909575088036,-0.007838091236978794,0.07087312544187833,0.06074912967252113,0.16549529971271884,0.07192458038045828,0.1006661165774725
WIF1,,0.006147518922448652,0.02362639688937354,,0.008555483147919726,,0.022174980294885453,-0.24126450589839657,-0.17040851765974124,-0.026521822573742894,0.051849672699893434,0.03967984418198712,,-0.09068336730518532,,,,,,,,0.000605866838314594,-0.021719535758963213,,-0.029769996635582562,0.04315261510358423
NPPC,0.11443637660082483,0.014672373762841818,-0.015431693465991275,,0.07265900599443385,-0.010532631239767599,-0.03326430834121658,0.009973889494074241,0.041051663975803995,0.025220823403613455,0.11253997234350367,0.019735140511166257,,0.12898748255070233,0.01287931667187726,0.0013722723473925315,0.06453158350774976,0.04972417761796252,-0.0008353561645465625,0.03998328413498238,0.06999001902245344,-0.018581684852122658,-0.03465590600066327,,-0.05257489650396499,-0.009078717964683118
LYZ,-0.046336410643690054,0.016281950486909204,0.05144996625783825,0.005514668013040077,-0.017973740983228705,-0.001650000053286851,-0.035983282254693404,0.08424506481260828,0.1646153213047074,-0.01278431388496459,0.04012858228591693,0.0937987008595053,0.10312926835959632,0.06257443134002882,0.11473630036718899,0.028552391887694806,-0.030323102387234027,0.0479218741677308,0.07530645655131589,0.06269337950776448,0.030919957378753936,0.021629649430542554,0.09517156547079964,0.05449764352906902,-0.07259307564345681,-0.019269039118370787
EREG,,,,,-0.005252380857772473,,-0.030174537208317344,,,,,-0.001215721055476493,0.0280074714211206,,,,,,0.0896936452554208,-0.03276585472971247,,-0.0027181018657851954,,0.015454739514179914,-0.026276713301467487,
SPTAN1,0.1514729947546792,0.018426257597722474,0.09194383525948005,0.017005477482472407,0.06422061875982317,-0.019840645678571404,0.07327660502526342,-0.04805154624570067,-0.0375209286619365,-0.032461648690397964,0.024082047733094185,-0.005830831537600735,0.14599882731203578,-0.13407978265953538,0.025713247523114158,0.029446978964011394,-0.07058495312620462,0.0641561737559186,-0.019611763546057356,0.07952404235183595,0.05189453702160321,0.011551266843172078,-0.19202382427476603,0.08046943062917769,-0.1853769460103648,-0.03425030206725277
PTH2,,,,,,,,,,,,,,,,,,,,,,0.03269176604043749,,,,
LIPC,0.04349153009532076,0.09288715978934338,0.007074940848112434,-0.017974080399013444,,-0.002081021123230351,0.12276530360159477,-0.06262889063884798,0.06072036036018919,0.011030954795185868,,-0.024274249824164793,0.0009536229259844427,0.12392993011338715,-0.014060051132346969,-0.03250495669884789,0.06576852636463588,0.012970685537671094,,,0.10830381315414331,,,0.075992430092955,0.049870498786937445,
COL8A1,0.059344555121890276,0.0497391128044213,0.09890163037140615,-0.015279961128075972,0.0736329659257765,0.05000731542259036,0.03328511399049325,0.1906540413294985,0.12839989152810788,0.06224155961015839,0.05538412193444964,0.027163331683706885,-0.17173136667864064,0.14705314423529559,0.04863596774117473,0.11998696902375966,-0.034911208111180765,0.07865014682369366,0.1189371147600835,0.08245550253129295,0.14555951639976752,0.013381634978901899,-0.03278595894780316,-0.039581100025797566,0.16615597486732855,
GSTM2,0.11323701892767485,0.008466349844098789,0.04195300182563984,0.005910744978253864,-0.016812106190630616,0.02095202615855398,0.05277553404488305,0.023194754028138816,0.13170311554271788,0.04842218267442239,0.04884341091661549,-0.03065387343520338,0.07734943522152919,0.04023895803345734,0.10733399529602927,0.0409487303179403,-0.04411908761548256,0.07970145899190607,0.05306488784245297,0.05420073673729299,0.019452962963301727,0.025792858417071518,-0.01867082100492296,0.0910149689349725,-0.02621090774517218,
IL4,,,,,,,,,,,,,,,,-0.02393378262166507,,,,,,,,,,
SPX,0.05711649609671949,0.00726721691706179,0.08433771758443966,-0.0014894221564759496,,0.048240956266834854,-0.025678762154065865,-0.08359740397196647,-0.09952147037290328,-0.06449896603579837,0.045148120929532166,0.04464194452460234,,-0.09305561411163489,-0.024566135090639703,,,0.009867457853697576,0.015915926609488016,0.020131248273737055,-0.09151900664566602,-0.003800930483601094,-0.00398539477841698,0.12236189047818147,-0.06765430028182998,-0.0036703963084785953
MFGE8,0.09229981928164463,0.0423289194769691,0.11950491695287467,0.02586112975144486,0.042842851989764126,0.01672014792012215,0.05855463652598733,0.07524411692084072,0.12753321139124307,0.08278241504199266,-0.014761124317965517,0.07969490103183101,-0.0417637478443988,0.07330610892274471,0.04854625686117265,0.10480022103279615,-0.044651819012231836,0.14385880241324345,0.07392139458489239,0.09018820506677087,0.10821089999044053,0.04333870906488194,0.06856774354010439,0.1257037203521682,0.17041419748390116,-0.05822553167417256
TGFA,0.07254512992242805,-0.006592647403260828,0.0933870027952802,0.04930577968508113,0.11182028731956635,0.011126823669626277,0.04723145108598682,0.19174301021135234,0.0782168526560759,0.10541044315086477,0.020417995716131888,0.01413396935247871,0.04752953784784168,0.08349337866423509,-0.010846030994791988,0.030146177433334323,0.11280952971005774,0.04559935687522855,0.08648049634097933,0.06760785193475012,-0.011779651499168802,0.011734644861618255,0.05451545522396738,0.14749259272031504,0.08916098866546096,0.04587902687796947
SLIT2,0.049933860840522204,0.024376005630769707,0.12295481977357113,-0.011059688280890516,0.03353147015506638,0.020211168605198768,-0.014789185421738309,-0.026664694455113602,-0.07835149649563193,-0.04029994058334834,0.06716663388089802,0.043757280626934764,0.06316740812573286,-0.09400082219557916,0.1060754517546458,-0.0014395910384764439,-0.03193822440770566,0.04162751831145509,0.11120159990631698,0.020045256528506517,0.07228685706056207,0.07779205368681674,-0.035868497522443706,0.054144705188398395,0.0710783079903866,-0.06086044263695404
PLTP,0.017157865694086435,-0.0594460421028138,0.07566013867060113,0.003798571294350689,0.14833355387941471,0.012299328856073656,0.06892625743967967,0.07255577298506594,0.2775347048009362,0.00045126263740519977,-0.059897971429984584,0.09256346241504161,0.0442980149207268,0.07307594820088717,0.08288183446607897,0.031460703023165414,-0.09962890651017234,0.09111403634090387,0.17696384023986939,0.04060790935168839,0.17104388664022455,-0.03893730991898933,0.0829834065956111,-0.009867072958461277,0.05911757612891142,0.12992380840986528
APOD,-0.20194992483219065,0.10595342674112265,0.03312675776681833,-0.026228192013845467,0.082306706319499,-0.05225101776869111,0.060101541213092066,-0.08995972570338802,0.09189567061516932,-0.06001760941443536,-0.010629562749368111,-0.0187075855173414,0.06292860624551834,-0.10280526344870673,-0.11913053449778742,-0.07507974965314151,0.01576412169779108,-0.2103467291113906,0.10735499270900048,0.13145460427718025,-0.08772446645151678,0.02461605894485221,0.09680393124312386,-0.17824340524026477,-0.18115252855231045,0.04751586773824473
B2M,0.12058883761562349,0.09388117727404312,0.21099686197653955,-0.08930001248898478,0.07088551280057746,-0.03864647457822093,-0.04488588487687159,0.16811444165209816,0.2953923708700031,0.033992065605801654,-0.005288053884938387,0.05180215116233177,0.17553417444218716,0.15818694583351992,0.18283004901167804,0.19171037264103488,0.050448696861940645,-0.027076413235394236,0.2881226529106086,0.16614938213061847,0.12265401070904668,0.0008126716737557182,0.05157107803207771,-0.10547904286175142,-0.06604087734812893,-0.04735976396184148
OMG,-0.02040312705997451,-0.009242231921281995,0.0597171253763697,-0.01707877210383967,0.08774024667754725,-0.0016893549811916688,0.047312181187169164,-0.13404547299166295,-0.06856041595799468,-0.05547794521125047,-0.034472091600528665,-0.048940163308416926,0.023215822371732846,-0.07659459128983963,0.00519026927426209,0.13555682654785134,-0.10412720866880114,-0.14514542748902545,0.05908614082490599,0.14197371399766837,-0.07416234358403663,0.007335247053026711,-0.04840071295385898,0.20064444114774224,-0.18452546794507108,0.06205306759037748
CXCL3,-0.03465677199304161,0.040183080298146816,-0.05229836323866173,0.034042022078346876,0.01644890044611333,0.04581035352294058,-0.01619159611887658,,0.06671407356744032,0.06250841572414749,-0.04211626682165185,0.03128239519015933,0.12096251608223083,-0.06827831485310552,0.03492213100154518,-0.0027707120441001383,,,0.1634444993287021,0.0606325812307417,0.011819725228045008,-9.478165909647739e-05,-0.023996517839185067,0.04374979356492286,0.11650050785139439,
CXCL10,0.03724735777093965,0.05127812201612422,0.024054358389068074,0.10135275782031312,,0.00017986484657990805,0.04999181581821017,0.00937858214206745,0.2564885046146118,0.0827716174577084,0.007316921114478883,-0.0023313412938879958,0.016315660269101424,0.04096720431991137,0.1602835339489942,0.060164153081722606,-0.09739539370840847,0.10586860617218294,0.12647470412667045,0.03933684540721511,-0.0527431115699986,0.01437764046986407,,0.13292990775512808,-0.03629379456025371,
RSPO3,,,-0.021032087694578663,,0.008182398608247845,-0.02746723939055433,-0.07671544921312629,-0.014219366589670242,-0.01849747443836425,-0.06699493638548558,0.03996015082481219,0.023471587481219226,,-0.048475971044095116,,,,,0.05456805792761857,0.03420928519187542,,-0.038564565647202835,-0.02168109192757319,0.025598615136781938,-0.1014692453103794,0.033772156159211586
CORT,0.042795221992531524,0.030931654506195505,0.059640614177067876,0.02448217603349906,0.022782058467382352,0.042293667714734556,-0.03128232673160121,-0.05058496877929916,-0.1125724518201776,-0.04701709302119208,-0.0013658729524751415,0.048936191548231436,,0.003995688931865559,,,,,0.01984474531411308,0.04824826157912716,,0.04616542248572167,-0.0018470575898909215,,,-0.08958979579939344
NCAN,0.07021292516565708,0.07683871104858468,0.17397991466530802,0.04723478013968295,0.016861427647624872,-0.07419138379048282,-0.038826888854538257,0.11840716542198085,0.12249827480958021,0.07122578585002565,-0.0006972613045938262,0.06326334833657843,,0.0736180764085353,-0.06499076334551579,-0.013504945884004365,0.051451914252411385,0.08686649437760313,0.0044073438186941335,0.11455799625981758,0.08964094844928913,0.037004357455719804,-0.03654499395007644,0.12005245383789462,-0.10544878396805661,-0.1542965562697774
PRG4,,-0.05799215576105963,0.06882102176829015,,0.02209700543354742,-0.03767792830610919,-0.03267735293860122,,0.0027379317871546213,0.0626627811570816,,,,-0.015757048085437937,,,,,0.11994257898669831,-0.035197098113132506,,0.13019295749619694,,0.05669326781593715,0.0791064518594435,
ZG16B,,,0.041119859327723336,-0.010630151875657074,,-0.024880070195104225,,,-0.027553609220912822,0.021868556722107583,,,-0.008116545917149299,,,,,0.011791749993303843,,,,,,0.039649767549971904,0.02395388373919711,
TGM2,0.04887815823504711,0.05365440092358357,0.04425759083268858,0.013679495993027244,0.019906451584192447,-0.030959267964693404,-0.033140741746334794,0.0712418183516292,0.10611682815468484,0.055383887089313306,0.0599288446425818,0.020232732337973788,0.12281025565166812,-0.05224193151398637,0.1257726146499761,0.08610786243614828,0.00548142191113368,0.0494561241185093,0.13873368433455432,0.07693007096949447,0.11724693683090265,0.08881255549461371,0.09192841762972216,0.033582931704510065,0.020759539661044428,-0.04577698892398845
VEGFC,0.0570744611976091,0.03786382722310576,0.025900169238846447,0.049052759893949964,0.006254799129902054,0.01549235032040461,0.0275725989623562,0.09890015121999997,0.053710495719367514,-0.09644878147762313,0.03491862671168657,0.04909467512202225,-0.05607769296425549,0.019831490604141706,0.06933809538102242,0.01882686176770941,0.02498361354955112,0.05506151071577944,-0.001112354315203945,0.08178531486770979,-0.0015732919565869378,0.03949310745788446,,0.07353470411685772,0.1313830934960839,
WNT6,,-0.001668464953235802,0.02364575327326388,-0.0039060800849047644,-0.056282376836556534,0.006085018511569302,-0.005310653763634071,-0.006814081061850442,0.04435497166597128,0.04653563463248949,,,-0.058199469006265436,0.010293062407596969,,0.03313285174843812,,0.06774471355538587,0.03953852855841423,0.04367836754606876,,0.08769132166023591,,0.07330359874018606,0.017054027453205698,
NRG4,,-0.016150212779138584,-0.0055131364424888295,,0.05353303492561206,-0.013690930476434408,0.04999016706813164,0.06752626521249266,0.009379596143555135,0.015076940673438996,0.010689547470355634,0.022792638897801254,,-0.003133044995177569,,,0.09103537062954714,,,,-0.05462207833299852,0.03133488802825948,,0.03164747876295563,-0.0444963826810688,
PMCH,,,0.026604088291605835,,,-0.008937081867964545,,,,-0.01251015239011664,,,,,,,,,0.10548492786302442,0.055824662845815116,,0.0005919344205946724,,0.04806044671890222,0.06586646833454723,
COL9A1,0.11587756659158152,0.026270593802439336,0.14543981273628953,0.03436722491681474,0.06590908684986505,0.015494250592671016,0.07904743344634516,0.37211024098430645,0.00990401638033252,0.019136555862406174,-0.03475258039150016,0.05356757535554519,,-0.016149976713453165,0.09019458928751412,-0.017785601085904865,-0.05222464568041691,0.04876922557508246,0.040607724257259524,0.16753027497833378,0.10765170322697754,-0.0014549188295264151,,0.20012116257944443,0.11055225905592991,0.03646230186431033
GDF11,0.0832744034589331,0.061254469135904765,0.05026468762834992,0.06540578731758045,0.08938169202315355,-0.05983239733510489,0.04788589620294363,0.2597222084478419,0.1915816766312483,0.04118411750147598,-0.0020203393532391006,-0.03784312835284883,0.0911183713037822,0.11936572643740069,-0.04190062199620833,0.01066439687198831,0.005615095348793549,-0.03576571965654372,0.02713854043199781,-0.013756901640518569,0.10674324971249564,0.0030674790782548996,0.03274371223312959,0.128990787088727,0.01219988768229264,0.045536641959199445
RAET1E,,,,,,,,,,,,,,,,,,,,,,,,0.012052600353011802,,
IL24,,,,,,,,,,,,,0.039336926409362344,,,,,,-0.012930939471831797,-0.023774779701538226,,,,,0.12713175474190702,
SORBS1,-0.04243220240228779,0.009345039054096232,0.14407799897140458,-0.01846716261862393,0.048776899912134575,0.07028173703948269,0.03546911235311575,0.016692109858388607,-0.017353926094758623,0.0225839223937768,-0.03972802729994873,0.05550207984767692,0.09894906742977966,0.009063945017812694,0.0007386429369040689,0.09702385328494469,0.05565056255503811,0.06033290896207668,0.11360721184265672,0.052681397383502755,0.034233199712571404,0.019964511676022617,0.049133731907899714,0.04457683312937254,0.012958795248995045,-0.054745683087658537
DLL1,0.033653082701818084,-0.0005098274790824611,0.14998138628430432,0.048439209909907674,0.08297937871736837,-0.012655744116863371,0.01778408681403419,0.22535972009164076,0.15423953668359036,-0.03301910058822703,-0.016219816674851346,0.030673113358989156,0.04438899088757693,0.049564968114364505,-0.017403028912218024,0.018023303583144704,0.09042674495065385,0.04648016949797616,0.06475162678221051,0.07817193443943037,0.03324333521182301,0.05944624945148441,0.13083964904672188,0.1335362122804511,-0.017215988806013507,0.06411807028384053
TLN1,0.011395474318438178,0.00742601007928051,0.08783143946223478,0.05853947231048526,-0.0215776548529301,-0.010816834325430343,0.08783726857219142,0.22671831249600616,0.21148987952577747,0.07887585691504058,-0.023858307611187915,-0.050166593946700894,0.12271800254713416,0.12575477129535872,0.07079239852914086,0.17500874159684035,-0.00564557465404326,-0.042519980408360254,0.09153367375499075,0.026931253454892518,0.05909997877803102,0.007249892544417687,0.05834407916974904,-0.02104796890487778,0.10321816490320426,0.05877240579540885
COL2A1,0.03860009722503459,0.00591251482543611,0.10200757240497721,,,,0.03748895662793287,0.09558511331565281,0.05302373521482235,,,,,0.04173954552886695,,,,,0.15387106426053923,0.005543772794705001,,-0.012637800380601243,,-0.017836335336843957,0.04269281759870558,
SHH,,,,,,-0.008071367627860532,-0.04060580608748005,0.05112350444779574,0.015916375662494854,0.055995582158700395,0.011447241831080463,,,-0.005602036851413311,0.16362303024223862,0.05041366049971801,,,0.026349721964992943,0.06774524929930958,0.025386313609207175,0.01987083928333598,,0.10095804923158626,0.1221584138802313,
PON2,0.09315560706966465,0.056111708837491524,0.12853117021271424,-0.033872470644618125,0.07706274554828983,-0.11468311620177382,0.1034053995289774,-0.05487231399413832,0.25653903428600033,0.024736396122377588,-0.004688714709965574,0.03428946054901632,0.24055708672455542,0.06486088390615564,0.0563436898628049,0.12152528578444789,0.027418047944265726,0.01862974253451239,0.13603667436135614,0.17784005537505038,0.05718420154359851,0.024781101022805,0.05055613231593532,0.08007381427092174,0.1556341867551831,-0.0006201151051715225
ICAM5,,-0.01054522423863338,-0.009661150073384448,0.030897470285241323,0.017787843997621757,-0.029109493790042,-0.028123402139818073,-0.05854194443586065,-0.10862540924982823,-0.055614901175359104,-0.031495098344297326,-0.0009264318769049419,0.0585323157809214,-0.1007004208545673,,,,,0.03265023266354513,0.02813753981397235,,-0.07876798272790295,-0.08083678515503204,0.07782278235978479,-0.06799941017752277,-0.04446310335980689
HPX,-0.01360753355510998,-0.010389405107841728,0.003960823503319238,,0.02637140396728339,0.004497074649276236,0.022528240271451234,0.10646900881135886,0.032352058279103604,0.018029339238668014,0.005120281327526307,,0.024571254984792297,0.10749875756698321,0.09157068538260259,0.016992001464511852,0.12895080440107204,0.03190902157714909,0.055989600243252315,0.08847872117717517,0.03750710636500292,0.04791797158633332,,0.0603111979247628,0.033041292961989585,
SFRP2,,0.16639933610656155,0.016063108028106076,,,-0.05365029366701869,,-0.031286246412946715,-0.02361919840600408,0.07756868391642488,0.01118289144029637,0.06296085057178354,0.02677796894932884,-0.007961899440904344,0.04138623525862225,1.8107101638993034e-05,,0.019420160659434412,0.16659509148882065,0.13879010700650057,0.07576724662057628,0.05418904066823802,0.13367650886377438,0.1269638008950537,0.09218632077444529,0.01837702445096755
CFC1,,,,,,,,0.04088050593063189,,0.00467410716801849,,-0.03572006740191362,,,,,,,,,,,,,-0.018416116477266948,
CD70,,,0.021320488692395338,,,0.009234299004246981,,,,-0.013771560538991331,,,0.028818308606336378,,,,0.03553823413826738,,0.19716715002792937,0.056421796752712805,,0.007385614601217252,,0.018216189541504103,0.055874646486171894,
HP,-0.030532839593741437,0.11350180334560764,0.07278025772150556,,0.05275462143932822,-0.016679978481404543,0.0006692324797981017,,0.09768491669757447,0.020418048253350654,-0.036421189573535614,0.07507481417956963,,0.10277251003618317,-0.010435114188336196,-0.015678618586318156,0.07005214477815525,0.10286256477169774,0.24547876226014695,0.13286649830670128,0.03055701385241794,-0.0028679136499954517,,0.021256073827937476,-0.0002483156148376591,
CXCL2,0.05900169421941386,0.07306521395509412,0.03613841289519626,0.010314861367133514,0.005395536535657809,0.034950874483256594,0.0060131866917649485,0.11333943362252764,0.11381588017873567,0.08564804752811926,-0.03253027483943453,0.01947597562509243,0.13455989808163688,0.03482718343066531,0.0008141867525695585,0.07795971184746711,0.08885306884243856,,0.25514041189441306,0.0894978012142735,0.07405816286409976,0.02987100426043243,0.09156404438490587,0.013218398919817461,0.10577770266815296,0.017440284110037712
NPPB,,,0.06722689936688674,,-0.07511703783821878,0.07623205275431331,,,,0.04267131384077084,,,,0.03880588894420686,,,,,0.07328498651954304,0.05098641466266747,,0.007733479849695959,,-0.03161653928373822,,
CCK,-0.024608123900998015,0.04200493971993453,-0.02606019472410881,-0.05629473811163854,0.05184472316526952,-0.018060314501366696,-0.006678251553268655,-0.2794506380337178,-0.24675954248452509,-0.19615069477080058,0.0008283028279773724,-0.03319965719415783,,-0.13146671059965898,0.04966367489748706,,,0.0345124580410525,0.026316145403397766,0.04657564041172323,-0.0009958594182285128,-0.0012732013695525158,-0.00046133056030188695,0.05161499529711398,-0.2733215894145278,-0.1534441252523891
SEMA6A,0.05022931074221668,0.07794253283240564,0.05146055707177846,0.04274119500742654,0.09591299040595573,-0.006049025879622846,0.012977463727908508,0.14702694080032339,0.19377261168123266,0.04163057826933298,0.015322505639688691,-0.028644083812053654,0.05708416338297927,0.1461475057911147,0.026391428909828322,0.15635779648679418,-0.04202454333633735,-0.02040811672097596,0.06795579586905601,0.08620409815195558,0.041841008798586064,0.017464444480372404,0.03803983054974084,0.07709388072291747,0.13710473745339913,0.04426345546160361
IRAK4,-0.018584208544913154,0.042668195856586676,0.10453802279275563,0.021506073621139404,-0.005935253335540375,0.041361136404088346,0.1342343544235369,0.1683521181469816,0.15004612796828407,0.10203658868889035,0.02979455650196553,0.03553964703619891,0.10375219488679974,0.11128618945769632,0.15791327253026194,0.13453045243109057,-0.08091280095051379,0.12455375494726614,0.09835858792496671,0.07717885424700935,0.024542913833881207,0.023121837335574817,0.12348929539153924,0.18006046884684315,0.08645869766309361,0.11204173241749935
GSTP1,0.12562149077263723,0.07884300015175975,0.02501534448492102,0.03295170092572707,0.054573181228475154,-0.028257260213972367,0.054808116360674196,0.22402943285932508,0.22072084676153222,-0.006739919181327216,0.02837086332816602,0.006986254619049972,-0.07936419883837662,0.08993074519170774,-0.03237175894881016,-0.07611566950239192,-0.051191799935988484,-0.0339284254901904,0.13178375015322294,0.0805222603223711,-0.02961134614191183,0.06531468311176326,-0.014048352777366477,0.07207507509391649,0.11855425664557977,0.05002572631095613
VCAM1,0.01650180057094048,0.01802581304271052,0.10614359431327569,0.014112747967003535,0.010370227576435262,0.012034577013638598,0.0230003661512269,0.11467961390270347,0.29909125093237793,-0.05725980994114314,0.004269842997010026,-0.032095723106472816,-0.06881404979863666,0.020574705257069073,0.09604010339492666,0.16089678820829062,-0.039215381293524906,0.06836294452986585,0.19154177468047565,0.12069303078846536,0.054233103500381574,-0.02587318118414449,0.0194800772688504,0.18702750440874474,0.12049374243538821,-0.01571372111241264
NXPH3,0.050226327625925826,0.06169676248652395,0.05732140734052611,0.049247620595647856,-0.005777512045020094,-0.01839716949572974,0.013148119165385717,0.23196750529933877,0.15308667047825358,-0.08904935389852946,-0.02420187534510753,0.017475302029749194,0.013381383179506235,0.04240256751725846,0.07875924959602967,0.0463702752332579,-0.021106230575659746,0.09418922285477464,0.16990202177518215,0.10480727005772393,0.06332371522965369,0.01461969890735656,-0.08337741599882391,0.21166456265218972,-0.02457503984842192,0.10800029058211487
MTMR4,0.005122138442642341,0.04742535560573532,0.08180796767946565,-0.011036507162110293,0.12027564318090678,-0.021756253226110394,0.031971451414132414,0.09433710585083616,0.1206414977348148,-0.002914820453308413,0.014921792196583602,0.062296472005561515,0.09647825680197628,0.05114481259024027,0.08346716973572031,0.07727466863218188,0.11657598348343318,0.031178341917536503,0.0939905414841344,0.05219421886160447,0.03641566843115606,0.0803717476258274,-0.052006559972816585,0.15942991046935026,0.07818231727370265,-0.06243243880831989
LAMC2,,-0.006404334133523155,0.005980587309735192,,,0.05027980686711272,,0.027470500229244302,,0.041512418255122696,,,0.0718803000548161,,,,-0.004775259829298712,,0.014452270547321408,0.04404862791205068,0.0756916431414765,0.03381503894251043,,0.051786539405466785,-0.01866075953771162,
IL10,-0.00325631797922775,0.015748975696563625,-0.03332451299921501,0.0332675523132458,0.0994200298424317,-0.001662994329974391,0.00989348826734739,,0.05308648015684139,0.1015199752517594,,0.07390944014154609,0.06911650453480722,0.041045802419886084,0.05228122365950862,0.015973676894624513,-0.005433953103220355,0.07160611651123142,0.09798808876123624,0.07632957657507884,0.0489908165280838,0.05305158148492939,,0.05071980400781759,0.03820483974639735,
SEMA4D,-0.09065749743618659,0.02453746897675263,0.07868694732639754,0.034425276107352555,0.22053929904917152,0.055109533561785405,0.020897618302755976,0.030556881202750092,-0.03297203051242946,0.0037222766393621674,0.01908150188389913,-0.026630187206523465,0.11705894241723595,0.036407303109905684,-0.012159865113523287,0.03827512214468942,0.03012641594393307,-0.002101416221625247,-0.0034617887880054035,0.08322278798716373,-0.04735222949396118,0.02094030347519311,-0.016599063571321918,0.13381302432506512,-0.09448538412474392,0.12807387144495846
TRH,0.011768863947788276,0.1005010365625815,0.019643907419842052,,0.08778848579310862,0.02580097425742122,-0.0429878896422013,0.09382900875538273,0.0734594741296299,0.04183259918317628,,0.002731275647928231,,0.05242885360848625,-0.03946395406365608,-0.03999957460215174,,,0.07042846087758213,0.02620667283760347,0.1504120187968548,0.013467410221339399,0.01460916063084016,0.01785813998875693,0.0820943736508434,
SEMA6D,0.05399505482329715,-0.0008155801742695929,0.09623112814028865,-0.027572482628529942,0.09152032765533168,0.02975660964726519,0.015108800036394107,0.20720963854963786,0.1222408073721925,-0.012439525480834672,0.015985548104189153,-0.09095363124813456,0.0306148265930401,0.07224988476597495,0.05900248424206265,0.01258646490666917,-0.07885123144967507,0.09375577073290264,0.04905808350753069,0.014975703896836579,0.1365288713635543,0.0326262225490142,0.06672995316791633,0.061014408928217814,0.18814066036485472,0.08029085823409188
CEL,,,,,0.028634128025395177,,0.003377678092106678,,,,,,,,,-0.020434146056220213,-0.03945142663119572,0.10289418116642449,0.09311738558651583,-0.010287159036623384,0.08974855470770078,0.014761329662066088,,0.10540680085157109,0.017808314064571684,
PDCD1LG2,0.03045688241618206,-0.013327359521330217,0.027947405269376564,-0.012799936331566049,-0.023229730161162504,-0.04888647988196215,0.02104043481726394,0.026529615406466207,0.057576263265918026,-0.021747121327725553,0.025136783484291703,0.09693900040522352,0.05354700297823349,0.04485718083464949,0.06339113515606738,0.018088511390628097,0.021495910398654818,0.12078504375111171,0.10043748796036948,0.064063649963321,0.07306861911001077,0.01706257349897558,,0.1376671378061304,0.07518799167350919,
SPINT1,-0.012266868666576275,-0.03502362740398435,0.01773864345547958,0.061886085078124146,-0.022347406547510645,0.04709826479933839,-0.05300831984276873,0.03882657739876739,0.13924550266258287,-0.054002258077795906,-0.0173527019908492,0.02583071806999346,0.010923337928025653,0.015622268047969179,0.04886908651119115,0.029461307561845534,-0.024689794220337766,0.041709846057927304,0.14325116042988134,0.06861691715818226,0.057213374871240695,0.021974337818086935,,0.13105402862954316,-0.03125693799297585,
CTHRC1,0.13373899255807356,-0.00987489114456757,0.17549948463957593,0.0694401400750479,0.05106039684769598,-0.007305015437876893,-0.0540332145806221,0.316027473256848,0.11389791463215496,0.030340340115763805,0.0196050683165729,0.030627643840841587,0.005745367018695355,0.1248998173058325,0.1670450889544866,0.08137704564019156,0.08907329129234107,0.1631572949578965,0.09186412930446314,0.10642283187531516,0.060826142917529406,0.09088220464465484,,0.13087197985980986,0.07347102618372564,-0.0294478616894864
PODXL,0.047248468457231005,0.0583121375921045,0.18357055397645014,-0.0417567109289926,0.08254521797866161,0.02495632879693194,0.05299295919543717,0.2232297619773617,0.28456194427916714,0.12684476822206014,-0.025525733815238864,0.11712731140536685,0.15986284581373253,0.05057738987508251,0.14328708763240317,0.06465201991073823,-0.08231339035709843,0.11928053796961546,0.18460828498502654,0.10261016009368432,0.13649618280571982,0.08468702671246746,0.05539484889488302,0.05308687531871587,0.17131752791655436,0.06888810232989062
JAM3,0.0015834329928105038,0.039764635019528594,0.14397125083364018,-0.00022233598747648642,0.09543993041756091,0.03643700217467335,-0.012489340414344331,0.1798248858033424,0.21785922248969894,0.021708998879835326,0.027985584273747522,-0.015025370898356727,0.1681605006007274,0.11098299204060794,-0.030522660184255736,0.15299386459846762,0.03684948406097675,-0.12249932268426403,0.16713561619444559,0.06904612601960036,0.0021039040710119222,0.03206791424050604,0.01374715538153868,-0.0035655217327618055,0.07621070715599002,0.17230406739543244
TGFB2,-0.04740859256749553,0.008697360760723905,0.09936526807043293,-0.03566298805635956,-0.027010918551448892,0.06078326184354908,-0.02717565364578362,0.029884806136974768,0.3030730062172748,0.027626887021874307,-0.03658196316265472,0.06535847719464585,0.03750024780183253,0.11849809409278932,0.0722364116032143,0.005917071782263129,0.06426506528337476,0.14380871595672753,0.028256551795978156,0.11649331222503297,0.05304398124131483,-0.015360472201982648,-0.005730017125167266,-0.09099026428366792,0.1713771980170344,0.018641312899000312
COL18A1,-0.019848543881973997,0.0876175157751052,0.16134851467877293,0.06508019173335167,0.11001540691260625,-0.004628907177405459,0.0042681873102313386,0.31629503659816266,0.25509362978919925,0.14191438740249795,0.04566496579731573,0.08483059086814079,0.25390821577745654,0.10336560299565813,0.14459521576721043,0.08367134151163547,-0.04168369473094295,0.07430363847864611,0.19350569878529328,0.06550635285038935,0.12305726607284244,0.06426376391489758,0.09777993471066748,-0.049659762411992055,0.037145740124127656,0.050386599853426646
NODAL,0.02195017022835093,,0.009097477045236889,0.016940666684980368,,0.0176554492684461,-0.01918761519072512,0.13140255930591313,0.12435669763981519,,,,,0.04477216636402621,0.10235773733836279,0.08145080931379076,0.020422173940033463,0.09085400838725144,0.016494564530975357,0.05954872923642931,0.08351014475480102,0.045732372104051094,,0.10523432039506658,-0.034854101362158184,
INHBB,-0.0789467471918021,0.02221665954708958,0.008049044536538985,0.02945466689651378,0.07190942473542396,0.05494521822005523,0.03422343805512478,-0.019624551626044522,0.1348405161539287,-0.003959236601986762,-0.0080145583367037,0.053436151890469935,0.21126904595092355,0.08800088661623261,-0.052576839339597475,0.014322518527443933,-0.0015154423056116346,0.09541422820849968,0.19427797184436682,0.04755069097559089,0.023186871958212896,-0.0016743529833757546,0.02421988749860549,0.15879678651560286,0.09614357647908457,0.013498045784281733
LCN1,,,0.0431897007447235,,,,,,0.0032471234713077686,,,,,,0.03600107874041823,,,,0.06494323823958087,-0.01790393580167235,,,,0.0214054675004864,0.00017613554621967375,
ARF4,0.07225458733974063,0.07953015010970994,0.05326491925863374,0.01630907418932346,-0.03796006291989344,0.021982393467898133,-0.04537259420015891,0.09063064809488482,0.11145588620882388,0.06890276967313917,-0.006062036744929723,-0.028301389902403145,0.15951978641557238,0.14648194209890153,0.16923877234130072,0.030891190250378793,0.0983730421900461,0.13901845588425654,0.07201448728112712,0.11845089306105547,0.03337791923961924,0.0023181026444430196,0.14291833547120034,-0.012692560843507903,0.14233989324064852,-0.05130920685174196
CXCL14,-0.03159082658894378,0.04036757903932099,0.010175734379022635,-0.03501083277659412,0.021610145305235095,0.09827204955445361,-0.06344064051097281,-0.1988650010710293,-0.04072309962737558,0.054654058460946724,0.022974244973915845,-0.0028580201036071066,-0.010850408790349495,0.013150819208971985,0.0568772389441374,-0.06773738804006056,0.03317768127472548,0.12906486015273197,0.010097921688278133,0.025662641783426986,0.10381882780158067,-0.07895520307927342,-0.006680281075804512,0.04224286846998069,0.14178525573912362,-0.03359049505787694
LIF,0.05767574925765275,0.07498966424056898,0.0711187278322911,0.02075603402110694,-0.0006940386584719975,0.021168093908599042,-0.028736599366065454,0.07814425806261888,0.16627751665917198,0.1354280456988979,-0.034186361000674875,0.036177864251513425,0.10506690344045418,0.016675466843700394,0.07321466643592485,0.10379131353810374,-0.009919083864021213,0.037735048597772096,0.08246691369637012,-0.04944751772682989,0.04636615615532457,0.06185628668946873,2.2186827743430677e-05,0.034498657692053805,0.20981697362591845,
IL17B,,-0.002267484795433016,,,0.12192089165769478,,,,0.1191320205142595,,,,0.09970458601807579,,0.03672241778476915,-0.13045757988025544,-0.012575843632595993,,-0.008724482438183655,0.10976476610260506,,0.030106794330582696,,0.06654427184613161,0.10717126300783217,
MMP1,,,0.019722918093645833,,-0.008900303624219515,,-0.055550848533329124,,,,,,-0.20439124066570707,,0.1665145122909669,0.08707124791485071,,,0.06535056645783965,-0.0070718415625655225,,-0.044963697024927064,,0.10110201710639953,0.09566076421047981,
MATN1,,-0.02488949977152853,0.026195415250620132,,-0.0007185442327585969,,,0.01507721179082441,-3.010667265515477e-05,-0.017645758474924264,,,-0.003273053560395937,0.04707028949398636,,,-0.010605492097704786,,0.05050168698978685,0.03065846430568375,-0.018394787328303377,0.009305304104713747,,0.03721349047680273,0.08166596914035966,
ADAM28,-0.09425891466047402,0.04782875262499276,0.06720444132561915,0.007462648935889657,-0.01608254509689655,0.0303559945971396,0.040987074085701874,0.0014300766736749285,0.14938963585163315,0.029357584016301664,0.0010190048152840037,0.0860978424481895,0.14407749567093445,0.03470980806226833,0.06602188209878052,-0.0014814059911132742,0.041910853956785565,0.08230803336624207,0.09103872453558366,0.07507532769357622,0.01993392648687531,0.03954758924250117,0.15238860828271272,0.1551512028551669,-0.04307680717072387,0.03590020113781824
TCN2,0.030350623688691115,0.028858540944185627,0.12396462632447763,0.023419585109776944,0.04375032711696992,0.01121459624609636,0.08344090397867325,0.1532535981628098,0.18877820183919616,0.043354360772285924,-0.0031592525666389085,0.08169329955399557,0.024085083247849165,-0.0050092461392165655,0.0267537469664262,0.1459295153774282,-0.06623032224024321,0.06926154482690826,0.14310365431483102,0.15255239397819817,0.12789641556041487,0.04330379755484956,0.027555914556533466,0.13545886510640817,0.032909637626675765,0.07918040929557045
THPO,,,0.01454748358380147,,,0.003312004741381983,,-0.055505002185619094,0.05983549020304849,0.06266057624097728,0.015757824480719555,-0.02194439800096012,,0.033527644396116225,,0.070594873729295,0.053173315714364254,0.09929196290167082,,,,-0.008097856847955543,,0.04257056230549493,-0.02438166226723202,
CUBN,0.0967474548805588,0.0023472302164815,0.11678891359258571,0.002058587509522679,0.004226239436037278,-0.018201721993091707,0.08788054006118248,0.10843001533908708,0.12984163599900705,0.027108718229904783,0.0016904127690431287,-0.029167054712640247,0.15857896706221922,0.061930899896760254,0.12156055102782977,0.02978239938385968,0.007260358907906686,0.0867331834274849,0.1474152253895091,0.09721836544730789,0.039697055739287036,0.06688467208333215,0.10610868870230276,0.1458500070377063,0.07083575626488138,
TIMP3,0.10713648288942518,0.026982882776562096,0.018012885427011363,0.0010604794254683208,-0.02578377079793746,0.027148775246549104,0.018642240008152566,0.0313437557985223,0.21955724856167008,-0.03829351077608867,-0.02835011759120698,0.04866363239899917,-0.0604183102991807,0.054431368082180145,0.009469633704600895,0.05974951883026282,-0.045604352501804064,0.040204681277756754,0.027868874071262862,0.02385195981680399,0.05660701751678528,0.026990024345852147,0.0003154533170638722,-0.010913235501176148,0.06526176300442907,0.06849278591530435
PIGF,0.11652878877444367,0.0036564460012840122,0.07061369317690482,0.04280714275237001,0.07088472840322635,0.03384250942135402,0.07553770772946007,0.18546027410793378,0.13414077712148167,-0.01569439797542921,0.02769168999510349,0.08858716474973885,0.11644793374025196,0.05097718727820359,0.06608137534167188,0.017552589612846843,-0.018519065181137676,0.24028135495171996,0.11101541895834575,0.16043244200657045,0.009111435761894621,0.0008770850029155071,0.05987852736956746,0.15047745484970923,-0.00889560230949986,0.04507179794838542
CRH,,,-0.016689928731952623,-0.0511497218648226,,0.03976013107135386,-0.04446730187851867,0.03282193597847763,-0.1261033330495791,-0.053288015360800606,0.07448298381966244,0.07832678973193273,,-0.0325736825729465,,,,,0.07984069761050248,0.030109125934540314,0.0503829240152047,0.018106694856528438,0.003386752206533142,0.017302687269924132,0.08115900357971938,0.006566063086586004
BDNF,,0.0034061703080959524,0.0490998532958235,0.030199818712939572,-0.008349951620407407,-0.009604002791742136,0.010069378445896279,-0.10841816840769279,-0.22237971680494928,-0.005142550509810242,-0.0506816250095209,-0.026522820071561412,-0.02784963673931923,-0.015304768850770801,0.000844369671872773,0.0953488212011093,,,0.04929891708286561,0.06209946701952884,0.09372272388543848,0.018700148102932617,0.020648131477725238,0.22366196992723003,0.15594324768936618,-0.080760977897794
CCL5,-0.012472084687555717,0.04597932176354443,0.051014275138734806,0.011245377948303733,,-0.04684641078384519,-0.030260742184026624,0.06398403761798714,0.09568396774196618,0.07426384523758522,-0.03356386790380958,0.04426804800473033,0.057457833564701695,-0.004899417633705317,0.0447933556080374,0.0878598042067315,-0.040565784933381505,0.0025164322361129767,0.12491940701443394,0.07680107168150384,0.015484124410874973,0.051080538382607815,0.05642400513087691,0.12161805803273616,-0.10547422696139001,
GAD1,0.12283741857802201,0.035660615128119515,0.10338801201035246,0.06824056630799002,0.04628864540154099,0.007914678907987225,-0.041281200289191286,-0.14806770768152847,-0.14640287381485695,-0.1007686566013651,-0.007460780495515487,0.023096301030474418,0.10530012649404244,-0.0881123052991688,0.020160669649545267,0.051965779186434545,0.003800432129799916,0.12015418155913907,0.07086588704559284,0.08642655518797687,0.057290441387103944,0.04645767831690815,0.17367088085402424,0.11003587713903056,-0.07874825434082333,0.026303228676704447
COL14A1,0.01388266643807448,0.07144396584239981,0.03286679006633857,-0.0558742432686023,0.13371221468645067,0.05493424341450063,0.0051532602358087525,0.10487367493823029,0.08049571863668063,0.032344402455850366,0.011445692758356421,0.030160261706856272,-0.020338436284927874,0.07532653569529284,0.0712721560847582,0.20246737788064892,-0.03924907598205369,0.09617720111891846,0.20068348380370798,0.04302374461767275,0.017962859245080415,-0.021629413584719807,,0.14551584768166675,0.08096453279089878,
HLA-A,0.1200256657665921,0.028332535619679782,0.05697802138314047,-0.06975232382729588,0.013394868251628824,0.01125747653970371,0.022436534389493033,0.08641584015007268,0.2983579943031795,0.18206406725453125,0.018342294808449757,0.07307413153540862,-0.1403617982706557,0.206056495513762,0.06109525191293177,0.2273970623432017,-0.02380651711822757,0.1081005805327635,0.13472135437202232,-0.0285657350967029,0.15138529437199136,0.014237937495883342,0.1492553011577283,0.0010974530591642388,0.059289370120259845,-0.08105515806205238
CD5L,-0.06854652789428957,,-0.06276248877109217,0.009392135712659186,,,,,,,,0.03108620675984694,,,,,,0.08996728993961121,,,,,,,,
FGF18,,,-0.01866416635000708,,-0.032110252283835676,0.02994968510189018,0.023166289384895022,0.00556057888382774,,0.06114231445625733,,,0.008297712884615524,,,,,,0.05570165665433448,0.11273428380677362,,0.06129400340854187,,0.059928693367177724,0.04084977822491694,
ADM,0.061354799076745424,-0.09442547062945633,-0.08937682374430578,0.043067171379420996,-0.08880918493272381,0.06234373129530545,-0.08845965773110294,0.14071110148298233,0.1984201642427477,0.09556585289059663,-0.014107785289940599,0.02089288681698225,-0.1234780202416395,0.15834774444576155,0.07543890659696999,0.04335031683784758,0.028045630630066952,0.15657710998612204,-0.019262281918221724,-0.10728943251618271,0.04163340723927436,0.03825850024500089,0.1032402802567819,0.08681987977168966,0.21876983271506875,0.018233817935179333
CCL15,,,0.055245819447138876,,,,,,,,-0.0005630235856955531,,,,0.011599386919040416,,,,,,,,,0.05786296600195018,,
GNAI2,0.014484347301306775,0.08387860280503033,0.13587758576105227,-0.008355790353371622,-0.011560535138495627,-0.02850734132611393,0.06735883069776133,0.18388970914203923,0.25026120523820755,0.12331670693424833,-0.03222886611433265,0.08699697663285084,-0.1014246060103243,0.06834143606011911,-0.011494053312937083,-0.07715768584087608,-0.021493650799675322,0.04490518158466496,-0.06984430095623816,0.06824148998213145,0.0815486353213507,0.03094144514772262,0.007555916494159853,0.013811037486925767,0.1147315145112876,0.0030251324055280073
HDC,,,,,,,,,0.1471276924095478,,0.011363773551586815,,,,,,-0.05089060856205067,,,,,,,0.13423833169417157,0.06208637015440029,
COL11A1,0.08348518019985171,,0.08257929685007974,-0.02585065924282363,0.10758648002864894,0.016175198745736197,-0.01441576187745774,0.3554966749857905,-0.04478427314942865,0.024717797352179015,0.016869458103621147,0.030224249703421725,-0.07115262570358351,0.012371787403074257,0.04310742101065055,0.13234652868882532,,0.050476469591719475,0.10538063533043,0.13740074361300786,0.032816183802213975,-0.01019074938800755,,0.1373083394969359,0.211882738202674,0.02010276661225757
NUCB2,0.07921314479671522,0.02390491773653125,0.005078024398037525,0.10133837174505607,0.012615290551283773,0.026750079994586968,-0.06142089182813524,0.045627923475219274,0.12209747917625567,0.05992853102930662,0.01613467531578687,0.11941900105160266,0.0392168304088661,0.13174397406184837,0.055613868954598,0.013790946968886763,-0.05648850265599782,0.06501225039969245,0.009629857762730695,-0.03573919931375375,0.015994197744383466,0.003905559051830051,0.05177935815642762,0.17576944456373356,-0.010761118298442719,0.037551156876724875
FGF16,,,,,,,,,,,,,,,,,,,,,,,,,-0.013593025050455053,
CXCL1,,0.11471467872162627,0.039412738727479815,0.005373883260303979,-0.018910398740174996,-0.03289091168403598,-0.014280998626325394,,0.05712192108618991,-0.018513858039176316,0.05128694850434121,0.04770521185077064,0.202151077860018,0.00014448168544041524,-0.006650916065408699,-0.060891035423698246,0.06384952521153037,,0.16390869295345528,0.02779276453136973,-0.033644570526413176,-0.017489510055892325,0.1382254350405609,0.10427618053966442,0.1110527613493573,0.08692423727574027
VCAN,0.06379445881305831,0.018557617384110468,0.021972160599815202,0.029684725326940498,0.11748902873109292,-0.050136691873167376,0.0833113220583409,0.35244842729692255,0.2126169783100935,0.07458119540815239,0.016564279660420133,0.015659125141994766,0.19023561779238515,0.07202009581779009,-0.0850988854268575,-0.18074561192741287,-0.1625015166129651,-0.06801180064018757,-0.12757348613095842,0.03713226968178732,-0.02092150944979388,0.047055439719389545,0.023129606204191307,-0.06754928213110538,0.17963165243659623,-0.017003237332968484
MMP7,,0.0001314947575255783,0.03684398892375697,,,-0.016286763049934885,,0.06636410303932529,0.008037279276941504,-0.026823022084180356,0.03659777174428228,-0.010168021558225255,-0.017272756682627337,0.06574956664304994,0.127689534765899,0.07195107531519024,,,0.22897960437111464,0.09662573049222584,,-0.009503182402766938,,-0.009210247899549317,0.14674733384832764,
PTPN6,0.024434115353956242,0.0971242424436669,0.08692302125936177,-0.0003048769779061885,0.16418379113629353,0.05909319528026185,0.111703198839276,0.14919608171111642,0.1981334606192863,0.07598958716582423,-0.0002542264301068841,-0.02643221506305056,0.10595049763125833,-0.002661149953398661,0.11990278517445108,0.08907342163810321,-0.042109369353565816,0.03764616404175059,0.12639491207141293,0.03902710124762256,0.06942258289004018,0.004792466298186033,0.030146575584735602,0.14698166517705938,0.07812833950618141,0.005793934145452427
PTGS2,0.0526945415501657,0.049054676032909056,0.05296786354881451,0.006450382815773785,-0.042013045217700676,0.059925975817704896,-0.05479956206783743,0.06465456452752931,-0.1606979140351661,0.0012894421963935262,-0.07070181334723516,0.0474122201765688,-0.03676598287543782,0.038282320395099975,4.251141752917323e-05,-0.04580138619773131,0.09332310315788976,0.07342213957663085,0.07704980479224842,-0.05347155781809549,0.023483851249144004,0.015123008060432954,-0.04240667215899985,0.08371796526034095,0.13154562247712406,-0.038370754116593485
XCL1,0.030566445229483607,,0.025887999900019224,,,-0.021941785588606676,0.06078492878980006,,,0.0026706789581591333,,-0.02765388943004545,0.011640704507815314,,,,,,,,,,,,-0.015224803739700922,
CD58,0.04764677668394161,0.020666180057844992,0.11743882819136432,0.06212103399645077,0.03776704017276977,0.019620221408423007,0.05461467624860426,0.12463539940247377,0.28001056279104725,0.054881467240150944,-0.011357218094879287,-0.0009088631475570339,0.1974149833697219,0.12178771673075656,-0.044409088417850205,-0.012327373088828133,0.0376590043367792,0.12462660833004113,0.1326881851337432,0.1304513185951668,-0.003657601109570454,-0.04825997431369478,-0.06550189539521112,0.13857791120354337,0.1797947805363656,-0.03856396530431933
TNFSF14,-0.02979340815408793,0.014289008272197578,-0.03421501338909952,0.013309640919965686,0.07598603630779299,0.08186624209824235,0.015066912282715486,,0.1134405923824038,0.06129565148033012,-0.028446496613832147,-0.0024539014307619618,,,-0.0833938980637986,-0.0008755846546081443,,0.06856242928248953,0.009166603454014054,0.058228047084921776,0.0952089897789205,-0.03599506874747888,-0.040373308325303184,0.033782043932117714,0.004766812875828852,0.14454504042311336
CNTN4,,-0.004690075428219516,-0.028941323321273787,0.046869394291503046,0.0075156182418842,0.046030718179419824,0.030419001812109315,-0.10170162328148445,-0.15271695281241418,-0.03218255062113487,0.042580165395022594,-0.017025606757430842,,-0.0773232544548275,0.006299398478970311,,,0.13978085386683506,0.027405101079076045,0.03216618783395374,-0.043092854272148914,-0.07653252639136224,-0.057945340059504725,0.025306015915123024,-0.06767257004251988,-0.05248772143288007
NTF4,,,,,,-0.036836819524184126,,,,,,,,,,,,,,,,,,,,
INSL3,,,0.02350586151197851,,,0.0665140950112403,,,,0.013089745118347193,,,,,,,,,0.030071456339325668,-0.03967720578455766,,0.04179289612217954,,0.030456787882489164,,
BTLA,,,,,,-0.0006573909833701897,-0.008363794350733818,,,,0.018898310462496425,,,,,,,0.10390661728704007,,,,,,0.02113693305925258,,
MFNG,-0.07294100750253285,0.098436672911264,0.06731045914470243,0.04128299269474262,0.09570603497853945,-0.046110973411510076,-0.008633648756662279,0.22857377314094715,0.173738509386594,-0.025446667827694603,0.010579276315525639,0.07104834197444124,0.06721479942774619,0.07726564564342162,0.01359391314208888,-0.03325915738883617,0.05546271838465078,0.0018507564459410558,0.08898609595973468,0.16688758304091364,0.1487409932993416,0.010990785390930652,0.08881154095674537,0.08815277638711383,0.11790252833715158,0.0735051721250726
ICAM1,-0.003668601564159272,0.03199294209700039,0.015849634098004366,-0.006612781277372615,-0.0012758750488600925,0.06719911159890571,-0.025590317096526885,0.15609187616997075,0.18714230611854388,0.0986145527547096,-0.0036616458050961185,0.06554418877504492,0.03143276754909934,0.06211651980077727,0.10486286129655385,0.12005884348965014,0.1137802775923165,0.14538395225766032,0.14311069052802303,0.06198584905941917,0.04545083605264576,-0.0021443190556750384,-0.1288914955134353,0.10072134271988673,0.053806867913997844,0.048680335873037696
PROS1,-0.04661130463417499,-0.010021880362606506,0.12082312624951137,0.04769643494121331,0.005192547581711488,-0.013891789790569499,0.04485261769616741,0.19425267680523856,0.23471473469059706,0.0819013372021563,0.01785409579103579,0.022334480778315374,0.12763195815899017,0.08773342431718988,0.039370271131789425,0.05358507768403029,-0.03455633079338204,0.10404313595887098,0.09210345947441997,0.04407600244231357,0.10956068339167922,-0.035191534534230975,-0.010938067368329822,0.014112013142093089,0.1374997471240735,0.07461617802924433
CLCF1,0.0732870191552293,0.04071697857184171,0.0800989844314573,-0.022064506897711483,0.0526944596804565,0.04449155560217706,-0.024519062401414424,0.1104325190146146,0.08338366161856506,0.0858798861009936,-0.01683608075895986,0.008569893410705848,0.0015115066809141002,0.0497324734544906,0.03847462990096454,0.11040155729071174,0.01912008522012984,0.08392996357515797,0.14371138352002896,0.08114109787202779,0.1234749057900306,-0.013140105078706539,-0.004526547051705008,0.07235751073196045,0.1802645677881961,
PSAP,-0.2402183116300087,-0.04172955844265543,0.06793120709514604,-0.002728088695768866,0.046574870619674906,-0.029106273233893462,0.0010217935061027253,-0.33750899781438215,-0.13109196938542084,-0.005911228589851878,0.0406546646690459,0.07252587850921846,0.0313448706419661,-0.08564457640047482,0.04392931496079846,0.13628784794683685,-0.03334922746558054,0.1009722560444506,0.24558722458498808,0.0445545859357922,0.13100666215432355,0.022535286357753287,0.057188432394668295,0.03351754664571181,-0.09516937885967956,0.06760561747775917
EFEMP1,-0.09601792904993055,-0.06621931259293476,0.05073213999969732,0.07510164150380237,-0.017914058584421976,0.12099427803429792,0.06937247006947588,0.14330795388360126,0.25252663976813333,0.048173494440353584,0.000629869239996291,0.02398682223400795,0.049873149218659096,0.12336329588400247,0.11044439291209232,0.18430613342713986,-0.057865650345007846,0.10554078688380115,0.09901939058640839,0.1084399628284877,0.1297074672672235,-0.07485477928182509,0.04018209731123249,-0.09874012835607242,0.2232004401414644,0.066812372217704
C1QTNF1,0.11538491675228599,-0.012213002340525995,0.04313563345985849,0.027794554402943948,0.016372977413923188,-0.00600366775364889,-0.0013427537027905167,0.13279835723843553,0.20136346488374585,0.044879362792423445,0.010658788688813259,-0.0045191810076857285,-0.06469799860211344,0.06881891018723987,0.07710232466182221,0.16444825835352767,-0.050106777526237246,0.01581129603993486,0.20607070526782725,0.027661775425115033,0.10808410571035736,-0.0022695795999006013,-0.021176948886440932,0.035814419765065754,0.20358368407806213,0.07817895702484538
ALB,-0.0036686737766328885,-0.05717548805847905,-0.01003956079540324,0.04242641338619074,,-0.017358170725018184,0.003670952842656928,0.09176618241058969,0.005803938458439112,-0.014229289380128424,0.059320710382499635,-0.013842443931461425,0.07919314327232577,0.06339837980139522,0.02247120923405839,-0.10431564657911309,0.031603280868424274,0.06113158992241087,0.10391334931266274,0.02716401577345078,0.041962559718989254,0.004275354421079722,0.09469409899541484,0.053294558846964955,0.031658200778213116,0.034632828884456464
CCL13,,,,,,,,,,,,,0.07209062881537179,,,,,,0.039099875994784906,,,-0.022262909547155922,,,,
EFNA3,0.04349535024772808,-0.008730387179095718,0.04024504372705856,0.03554485666331225,-0.012904223389692712,0.037318187271946884,0.016967783252263575,-0.10638809743547,-0.1696536233483626,-0.04596843528403277,0.02180476743749592,-0.03301167332034118,-0.02727805997654685,0.009003305546574542,0.08055824836374277,0.02725105479004808,0.01771536653638571,0.08984531129920909,0.1464032829335196,0.029266332270658023,0.04785455426963993,0.020811741888685318,0.0036867934520368835,0.11093399766347156,-0.05039432493669669,-0.006618930517249293
DRAXIN,0.032234148577746154,0.07114558832819377,0.038992581537755075,-0.00821406627089396,-0.01334028909509686,0.046012657344563015,-0.05017751218989767,0.25496713030192364,0.2382137095767899,0.08528564276913743,-0.00403666062446149,-0.039153569384653565,0.07119914655254414,0.13204566202436807,0.08737334170891017,0.110092637167445,0.046052617675159814,0.11443336815381748,0.004277796167979499,-0.051212756362140094,0.1148897250746424,0.07507206945880548,0.0900874603848706,0.18120614128279944,0.1155146093044033,0.06259545981270526
RAET1L,,,-0.047121149817654584,,,,,,,,0.03602751307990086,,,,,,,,,-0.009125017680444186,,0.01871691196616986,,,,
NPTX2,0.028263702236881946,0.04113419807011346,0.02564155683790614,-0.013200537844882905,-0.00013038874369682545,0.06061577592798222,-0.05610131970264296,-0.2662566430199473,-0.2424239381894253,-0.17861505255153481,-0.031748639337674085,0.07546330709855595,0.15874008202606865,0.14302992915706006,-0.062421213460027394,0.01969621993968366,,0.023198533071502353,0.1641068940110146,0.15681250288703985,0.10472584196259282,0.02194831843704377,0.0725618168290319,0.06502450525238405,-0.014466768281932363,2.4389588198636106e-05
FGF11,0.01914325103648709,-0.01169727873423456,-0.010278468160892592,0.06557432082654403,-0.019239346110811073,-0.01393141620787705,0.04446101811524888,0.14268070080622178,0.21736321896634767,0.0720457760380253,0.03305802138895418,0.03839789826629596,-0.0403461257481231,0.12447679629778523,0.01832522109981023,-0.01645265171888844,0.0030351590817374605,0.11417424177752987,0.07432373666964277,0.03364756811360653,0.03797427261833466,0.026910700119927845,0.17702024458997997,0.15654880925046294,0.16623863332020258,0.09235795845778415
CD59,-0.06248522407384465,0.06572855306748268,0.1450107075343831,-0.043241893861176474,0.1365069970642042,-0.03730227027793438,-0.04771669081387796,-0.1569027574066036,-0.1277611734978849,0.056832068070626185,0.016076235765866944,0.05181302767531146,0.047059326946015535,-0.05353601591861063,0.1440930311723116,0.2256259183241189,0.01682517232943094,0.0012338341010422838,0.19119778794792783,0.08857388222239582,0.05894264258768441,-0.009841117759376447,-0.0864520813794296,-0.03174972777942315,-0.03420326764347383,0.07614628394763144
COL9A2,0.07443064503136629,0.04385996393312264,0.08367300053160782,0.04097220304938829,0.0784370853558657,-0.018531045709289713,0.08691542284099736,0.2024642012940573,0.0974311113781178,0.017028657345751007,0.035024404228602576,0.00044422808387090926,0.11477639654887149,0.037710506314202884,0.03511416878444131,0.05825995878715309,0.0403805278825826,0.11731009993325162,0.056544369709523486,0.07996338364758339,0.09480291252738515,0.019879430685856864,0.10120370844797744,0.1776345863482792,0.10289327326045777,0.025808659502691584
DLL3,-0.1690627388933335,0.059103833208312404,0.04601632005242023,-0.0184676984010332,0.08404761533507758,-0.06957783608443747,0.06272370450239287,0.1792650824870585,0.07786568483619517,-0.08990302792400676,0.030717450338489345,0.020718884155165554,-0.005131309282186821,-0.003864316278647208,-0.06839138712468269,-0.02493767620556124,0.07375827158296669,0.041804614547109195,-0.028271012707408488,0.11141023521979986,-0.023743069410490664,0.0026316353177891073,0.008130723313394672,0.16973175907455182,0.046706154194879855,0.032450275786890664
FGF5,,,,,,,,,-0.027820116790979732,,,-0.04037573727277573,-0.0061345269247231595,,,,,,,,,,,0.0483648888624158,0.025772200464677007,
LIN7C,0.08795432292967009,-0.03083237454971504,0.020471127439957482,0.04369982510965987,0.05123000352515816,0.04491778443152016,0.06904591719552683,0.060014424300973764,0.08407673361628154,0.05281034309270578,0.0538266424147666,0.05462823623156911,0.023935393811749115,0.07072950910207808,0.13116699123232706,-0.12710671508517715,-0.08719604981918785,0.0894270462534986,0.0018464537611546253,0.001054865820318283,-0.02485919465470248,0.007988089935519105,0.036452188367931515,0.09879462735020994,0.029460050743723168,0.03600887605138882
GDF7,-0.03738613154691967,-0.01235073854932113,0.02507472656707428,-0.010692774851432671,,0.016279800878899218,,0.12671354723426964,0.08850873480499673,-0.03747356819583469,-0.0431683407939312,0.0037593743731965936,,,,,,0.057060440115182416,,0.006585806762244428,0.013958316704197013,-0.04018667235975792,,0.12925450328808863,0.06625973155408602,
PSPN,0.05233425941894687,0.08919043195996722,0.06070707960436537,-0.021500092612671984,0.08301502954423401,-0.02328526395532028,-0.010245204309396443,0.08519069366694981,0.03657354819520103,0.07845484368205713,0.016635440260711152,0.007991693158565108,-0.07645508550973282,-0.05244816585636114,0.14353288811328796,0.07183346239263072,0.0122775242201788,0.1220166260908136,0.08494715197060093,0.08099477261580713,0.07549929853144387,0.05906362163758429,-0.042881769809531595,0.1367650771121992,-0.0007407161482103369,0.001230390019897945
ANGPT1,0.11999780753779547,0.03793086898878696,0.06654553424660405,0.003736051978801367,0.04717229165667182,0.019587116671352305,0.06730057779413713,0.034152580166519925,0.21550181070862554,-0.08289506900705863,-0.04961069359157756,0.08673903026407735,0.04271890577395966,0.004401059189666611,0.0643397213464312,0.032581487443796915,0.07261303202282693,-0.027250150044748227,0.10334597934473946,0.09921784344708248,0.053954282272575246,0.020384568855406376,-0.0715996443834721,0.10407990877241785,0.042720305460729906,0.10606059204662073
PNOC,0.05528745793985948,0.04427415545879278,0.05367229730713895,0.09750098704101295,0.07576434574081137,-0.016210850276264663,-0.03764443036017649,-0.1173039600059455,-0.19843051387724464,-0.12830073203045256,0.04154229701572962,0.06003599684098866,0.0788149809851737,-0.044176574165155344,,,,,,0.054663666509924116,,0.011028693572173159,-0.048511016926253994,0.04237693549157514,-0.01469619390275749,-0.10682044367068518
L1CAM,0.028412635826956516,-0.007102756546087647,0.03082639219665602,-0.03997086818843105,0.02075938824230453,0.012798225586009623,0.02078687860709263,-0.05777245090309754,-0.1523823345468478,-0.048454771613726126,0.0016355344229249656,-0.004202484613327919,0.07495897755759469,-0.17648235278255212,0.0526133104253843,-0.0025498668778496224,0.0100452133970737,0.09067089510156427,0.11751397338058721,-0.0823353457064089,-0.0055698123189914005,0.0372978849926465,-0.014596085882584181,0.03534724874117036,-0.13802352811558707,-0.07109312588683431
APOA1,0.11035977970107626,0.04349065148186691,0.06632400900135235,-0.05367498597514334,0.002999448598714414,-0.0008062755259836647,-0.0201401036722584,0.10048598001137156,0.006745189713952945,-0.00246699310956559,0.0013488540054702894,-0.00032067258730954847,0.06486025912544893,0.011332892352975844,0.020037497475194038,0.007865932642134388,0.008864974917309002,-0.00038679383824362823,0.10751915182846063,0.09971199473557103,0.11316297394209691,0.004652019713678122,,0.17096970191897218,0.08199258773397519,0.015419176327243912
PSEN1,-0.08655139544092862,0.05141436003979991,0.06970896057706578,-0.0001467925298928728,0.0903073722238281,0.08401397583754572,0.03130070238379395,-0.014859795292920518,0.07681403037414232,0.016364644183136264,0.0033349689448396,-0.007109566263493489,0.03026530110215485,0.059528972775009494,0.05968239719700976,0.08949526223072386,-0.016440867569502995,-0.14778904312101906,0.0273456815599471,0.10096333769724117,-0.07570080394788571,0.016918211918639025,0.049267553001839305,0.009245834277352961,0.06762588073300024,0.06788216633412036
CALM2,0.008797012010064388,0.003391961888899596,-0.012411846412122266,0.0009242876132589582,0.04640981088188587,-0.04633214486281079,0.05880296786639608,-0.2761185004474086,-0.2770121761219278,-0.1592530958256482,0.039220212959249136,-0.04677282481839779,0.10232814154987231,-0.1711908238472604,-0.02682064657109863,-0.10657658333430492,-0.13696044644885522,-0.10069871612890571,0.1375499919450509,0.12313442056380468,-0.039174979805446895,-0.007547406821527124,0.0013259008141332622,0.06979410874618446,-0.19960664907152545,0.06309372729481656
CLEC2B,-0.06477791393052924,0.0042262268827239794,0.011440708298183644,0.058209857907017534,-0.09656076832615178,0.006074100478788129,0.021238347571540077,0.06040697568767368,0.2523793327620351,0.012735253669929407,-0.02419214618553038,0.01719549939736425,-0.034079617139686505,0.03324570181105958,0.10890684795198066,0.0869921146409303,-0.06171411480256534,0.04409419685587571,0.07237220794945942,-0.02262311228864065,-0.017902547587164783,0.08873801749605768,0.05308248337682919,0.17824172115806583,0.02377051672903801,-0.007149264682856221
NTNG1,0.10590820517202536,0.035722899226070706,0.07235529053934711,-0.01867306592948983,,0.037813114691173426,0.02579860660301138,-0.01100541612288354,0.06986070944138438,0.07223326072227787,0.04399967612318056,0.040790483085318144,-0.00442445267869967,-0.05299052325994592,0.02367911987911885,0.06491930514547993,-0.004154758528954161,0.005490197122105825,0.06541702696675124,0.08402296131187983,0.06476948309076085,0.08003595998236514,-0.06139808232570453,0.21673268644023005,0.09866370871256833,-0.045874212900883865
LRIG1,0.050417716993637764,0.036509651574860975,0.09815410274827238,-0.023158881267988044,0.11404394534423148,0.07669252995555735,0.13218565259508,-0.022664223626520142,0.17326751267044926,0.025849770399849977,0.027358793972114666,0.03731440985885832,-0.03278316787902182,0.0635721394343254,-0.04741298535213764,0.024573334271012406,0.11008535501818689,0.02764038696052602,0.025735291416674112,0.10483154525947248,0.11678046606156452,-0.005816937853420884,-0.0339267749537537,0.0476443536074143,0.08046736402773126,0.059156835773838116
CPAMD8,-0.04316254984131964,,0.018069143336516057,,,0.032932266346031774,0.026922040105087947,0.0023804357672248377,-0.019006236778437973,0.017347091073543264,0.0325011495525744,-0.01844221245261138,,-0.03927589585320819,0.03503865417710633,,0.004684581309739686,0.1293749091507934,,0.00802505821212261,-0.00010214936162949453,,-0.019947608191601116,0.05201230453516387,-0.059877065219048835,0.031480081762625706
GHRL,-0.023815998404569674,,0.030562646753712848,0.01475073592729841,,-0.0010045657674417903,-0.0437740513042629,-0.01154463941733301,0.03369026108220727,0.005821376703921632,-0.03936878002283791,0.031860678445945805,,0.00651811403655576,-0.030456513647617717,0.049138851167689304,-0.05884639561941092,0.07700064379740472,,,0.06871715216758877,0.028910790727755684,,-0.0016580644434621506,0.009911347065825147,
NPY,-0.026686261325652248,0.07375242152265686,0.011163443461142553,0.009091375210349681,0.0566098263680829,0.050729317938192645,-0.007305496877621265,-0.18171270594592176,-0.147998130876232,-0.08226869774244355,-0.042750257572848005,-0.06531635745387164,,0.059018130672447836,0.0036754076190293732,0.03225612934788928,,-0.02481876261941434,0.18047819565084747,0.07891062291202312,0.008831917566732891,0.0009759966546000192,-0.052822611225522925,0.04648809010733039,-0.08232519710813642,-0.07373935636115388
MMP2,0.06062776485591331,0.13808997777314871,0.18361421063002947,0.021988781981093115,0.11166146153119919,-0.010962839463150477,0.03605818430432917,0.2462232143291071,0.2217903011753512,0.08893748632888623,0.03149996622628169,0.05478167559747451,-0.04989636543187133,0.09765021729362248,0.12859212646913804,0.1266717385937909,0.03024750028276815,0.09885051210275592,0.21334597571549171,0.07007277608138787,0.133867805169741,0.0839719837735811,0.08539466810506599,0.07196248114781716,0.03199467289735632,0.016301349711671066
LHB,,,,,,0.031586444640819285,,,,,,,,,,,,,,,,,,,,
PPY,,,0.06769647285905582,,,0.037320650257328766,,,,0.014920367593076377,,,0.03892598852324617,,,,,,0.1972892554664329,0.03726317180997408,,-0.01581811284134776,,0.08795934562925664,0.07600745289642064,
ALKAL2,0.024021235769225817,0.006403132682222349,0.00799357044612433,-0.01669936767862628,,-0.00312516953270733,,0.03170987343649454,0.004481376318688606,0.036909696080903574,-0.0011220983706520375,0.029182983819318692,-0.028482852096070464,0.1186633850561332,-0.11919954935623246,-0.007251036917882739,,0.024715896641352455,0.07308664913958202,0.01687886747367126,0.01151308486194184,-0.019889625659142224,,0.06603925871076746,0.016379733543426814,-0.09018968074697922
CSF1,0.04164902507242433,0.016245801949540815,0.11951843738544904,0.0209101636800049,0.04679486212878277,0.0020918276376788144,0.03022376752416058,0.23502649394263442,0.16253268291508696,0.07617730785726687,0.004526532876613116,0.057461204895705706,0.14457240810812647,0.12455262815406075,0.045317062735522204,0.06200187350483149,0.07432874747813215,0.04748812982352938,0.21978794358463632,0.04595407693663972,0.1455376065695858,0.03169690168531847,0.022229620280686774,0.10469705783539356,0.15128525668196952,0.1256828728561994
SEMA4C,0.08366708582698787,-0.008359761628813515,0.10058539269187544,0.018071167822815426,0.09641995734557562,-0.010513631623505174,0.06094446914655727,0.13973587931858433,0.0863622851163923,-0.03550087576937638,-0.024629855246042356,-0.036156219889722924,0.08465653197830662,0.05656171109987983,0.19209017778853854,0.024410494599659893,-0.014319269939669485,0.1238281719950226,0.11367894916222326,0.07611452283233512,0.0047075136670196305,-0.030496916319162827,0.002192330486379255,0.1815122372531513,0.10355258253759189,0.08161260158325223
BMP8A,,,,,,,,,,,,,,,,,,,,,,,,0.04271810683843509,,
ICAM2,-0.023665122081547134,0.026680219967478457,0.13876435918811894,0.02869551318686059,0.0595801105093633,-0.029542577065247863,0.0023035085989632194,0.08562592534829885,0.0964600935189141,-0.02168353650821986,0.013931335770126268,0.0017046542889091786,0.1312917908194452,0.025301400862166656,0.16404281812127622,0.16684974477664968,0.005010056867095101,0.0728263579302685,0.08250370015000041,0.08311661099280024,0.06290732428207528,0.0913083130651196,0.023528005535954445,0.13479155862084216,-0.05068219796067678,-0.11571132409691638
SYTL3,0.03529896671669914,0.030986694802604346,0.01590833744643554,0.10162020994871056,-0.09684428616552199,0.009455766315940788,-0.029975124595843394,0.03155467406915336,0.14960414995284405,0.0645261647195775,-0.02659091934433033,0.021417538871786608,0.00416445429097439,0.07400595964584178,0.15073961180786927,0.038916611633085456,0.07241852806240424,0.014694558861923545,0.02408705661218507,0.08090475308605706,0.031655880525183096,0.009693433274160878,-0.0018143743806157634,0.04829968117206259,0.06074658052868992,
IL1A,-0.009026997735067153,0.04810505220463115,0.029729145912660553,-0.006218030120748467,-0.013915682843831751,0.025751711744432942,0.016406483540901108,-0.012871849396378907,0.08123770969174868,0.10782394613616227,0.04709618408882755,0.01183375893556182,,-0.01652333110106428,0.016052757875059196,0.08677041879749695,0.16070785071207522,0.059198034095943895,-0.043318629268732145,-0.029125681126199447,0.08492800375331908,0.03626434084111903,-0.0002670401040647167,0.0940071544800032,0.08462786499827565,0.04642439737028349
HLA-G,,0.040423477845748707,0.0015871622238100912,,,0.03717618805489028,,-0.024170725986696576,,,,,,,,0.048172140386219225,-0.0867811897970761,,0.10508851866671898,0.01953004873278555,,0.022692075468444817,,,,
PGF,0.10412650876517808,0.043779480914225684,0.14997246360456193,0.07422261639411126,0.013785563594565101,0.030861759436063677,0.025114257981331576,0.20492756939757428,0.2451371905236968,0.045176026794702694,0.055265638021542086,0.05755104304782942,0.19675279589854222,0.10100453828574782,0.15605570430450455,0.13073630074327552,0.004022734231528016,0.215083406482711,0.10091976796628613,0.18208496767661303,0.06785332680848018,0.07154642524019698,0.03606705638995596,0.1693156362730704,0.013835937216585128,0.13133158794004268
LGALS8,0.03439695783563649,0.04674838870798185,0.07109383265077772,0.02232747269442861,0.09913162524446159,0.04052532688704449,0.012648928395586864,0.014346084077243143,0.11299976961231589,0.01943566006452438,0.03699586421255891,0.041974640911132226,0.05687900840410894,-0.011941767065738377,0.0821342640395827,-0.047251334901046174,0.0024905332331780264,0.06740716832581943,0.07410358655573233,0.15657814018981275,0.045046713009292215,-0.016210717737222748,0.13529094134891917,0.12372928382719796,0.0762236126102687,-0.000667187580582457
DKK3,-0.027390189720571743,0.01579968329796495,0.04231943207977496,-0.05265622062508882,0.06982732716797954,-0.02792482297610631,-0.018875488765182247,-0.3612655674488445,-0.25208990680473914,-0.1125254151455942,0.010275901858739079,-0.037178000950519687,-0.05874595107047185,-0.14449499285850334,0.06847823678294679,0.07053094302352941,-0.009231013007775358,0.061712188975409005,0.08546262188828622,0.07713351062051148,0.06071568921858809,0.008854136983525841,-0.07951818248068991,0.12119657632246163,-0.25091388176315027,-0.07326338478021019
COL16A1,0.140062139173507,0.0007520178970469409,0.2000602547193216,0.024776768411539824,0.0914881845539745,0.04735540924362416,0.08381364612177987,0.09005065427092344,0.13614789476694034,0.056594152378597995,-0.0032891841528509148,0.08134817715133245,0.20914802482883474,0.0893946382043576,0.13359232747854916,0.1410842639844348,0.012216889791248055,0.1359586580229707,0.1615155371248035,0.13764317543011198,0.11299252558329022,0.04718335328915129,0.20742446272063783,0.15207614413389778,0.15553740427179744,0.0817686748352704
TPH1,0.04359198784934775,0.004059579321803673,-0.05789184393170175,,0.015334601333338761,-0.020532621000850067,0.06620475298988589,-0.039221939357820514,0.054932364231425966,0.07551312299885163,,,,0.06610666044472599,,-0.03641652438789752,-0.07332751663032924,,0.08269904897629192,-0.012651912690624888,0.013872480989864527,-0.04694989735920075,,0.07121186963341387,0.07433518081310934,0.003898642466342128
TNC,0.11774262546852944,0.022501580406411453,0.06769136935970348,-0.03149761504998117,-0.0663533331369106,0.06309922491692654,-0.05606343665756009,0.24520389219179398,0.31936294964620143,0.19581367629552224,-0.00787856979257229,0.03195184302668611,-0.19120357536400745,0.16285055524887262,0.04844099079410559,0.03478505217933481,-0.013233702071225501,0.17531143473595756,0.13995013654816804,-0.0247063643647665,0.1541285284888938,-0.010397881609173624,0.020619313791563232,-0.05050530534371349,0.19944833935934095,0.03458730905553766
TNFSF9,-0.03501781431052237,-0.003296832984660436,0.0054187251867263125,-0.038102654782825554,0.007483061948885531,0.03966904674275504,-0.01863557513665458,0.030708635107516556,-0.11732010456909882,-0.014058716105296775,0.0423887987684896,0.02132829429109825,0.058294194093308535,-0.014553980730269249,,,0.058973276291142386,-0.06328542010172397,0.03495372738063709,0.11398730388148975,-0.004395649670354839,0.08244636427606009,0.16324179010259202,0.04398569831579905,-0.05252756093283766,-0.05603489412554522
C4A,,,,0.10156118295577038,,0.01646178559128677,,,,-0.0028558157774464773,,-0.06118390362162057,0.0654296062636908,-0.0016474686551677458,,0.10264641714282868,,,0.049373321601979166,,0.07212794558034158,0.0063674038178094024,0.016570482410349082,0.07809861897436475,,
CNTN2,-0.11599196726339031,0.08645222446118021,0.007836698225677978,0.0499569811457186,0.1228878281662564,0.045515971038876474,0.09036156585653303,0.02610045251641437,0.0060488145676077815,0.01247438851908922,-0.02142818370536738,-0.02310749368607967,0.011069440770590003,-0.006129572734962046,-0.05691780636389739,0.07764291909642053,-0.029745673352337708,-0.17606009273063794,0.04979155040441188,0.13185913764428722,-0.10645434943804902,0.03716073792119605,0.08746287014159917,0.0485579096046924,-0.14278976925768325,0.17164131213753847
F7,,,-0.0208842859708897,,,,,0.015154830463941553,0.016626473752995755,,,,-0.018812432124334137,,,,,,-0.02992696468319785,,,0.0482731495070536,,,-0.0022259976051914863,
LUM,0.07659744967818259,0.02333092294306481,0.18667372450218403,-0.048230363464286205,0.0755747921115378,0.019564564521972545,0.01889545327102841,0.0392758868628283,0.1873500346739696,0.06504743236654384,0.021736197735064272,0.052550450937324716,-0.08631687521875854,0.026237080296175625,0.171760887418503,0.06070625103230123,-0.01843015633776871,0.08021458212434353,0.18447245934126866,0.15449634832625997,0.13501502642674343,0.058272899197310865,0.006837521592615455,-0.0516677212406604,0.05761849882618382,
IZUMO1,0.040338187786649084,,,,,,,,,,,,,,,,,,,,,,,,,
BTC,,,0.04774096460182912,0.004284674215301441,,0.026806981249285298,0.07845664139591067,,,,-0.03604945000909643,-0.008650552650749212,,,,,-0.09054011094660416,,0.036725818159559095,0.04551852119762376,0.010511319574935006,0.0439374650073115,,0.14866654212877567,0.07682499540753074,
APOC1,-0.24120922298742917,0.04318802872231427,0.04609790333122427,0.06133635262530171,0.0847663413362056,0.042000619118363586,-0.07573719246920858,0.26601549779934736,0.31255500700106376,0.008896175269393328,-0.025069194355569722,0.002861158943815462,0.05827384244749993,0.04784441094951118,0.05868118281882332,0.046013409671938,0.11299752415369084,0.03628004499612895,-0.06607179788462474,0.053967674351832265,0.07873150142565215,-0.05731442908500572,0.0728991727571406,0.034647413082716155,-0.034194349105242446,0.10171497917598492
PKM,-0.029477499516550213,-0.08699137032326705,-0.08138514177123601,-0.025437213145575087,-0.07373972454137556,0.0680025351666769,-0.023933033997325003,-0.04647817420821108,0.11694010317166607,0.0014663298188619396,0.037906020360785705,0.08350370367019608,-0.14077685825579558,0.10670534306259702,-0.015181062505580127,0.0812939424593835,-0.010125619930096225,0.12945088262946294,0.049974329199698235,-0.039391393286137395,0.12956029020898668,-0.02568181702239579,-0.049068070131232454,-0.0020633379130046547,0.16248016586592573,-0.013192934934177837
TNF,,0.10440378337729912,-0.01024968913660531,0.04939371095496428,,-0.0012549224809160083,0.033034214649764596,0.0841143122966085,0.08171820571396042,0.07160168788227832,-0.0029607536226647444,0.05556595937933677,0.08449891298747679,-0.009470419681106719,0.05355293997987538,-0.002912896675156996,0.06420817171398496,0.04514106053277326,0.04610899552639493,-0.07049181031050303,,,,0.15292090536832798,0.003003506555653854,0.05827196085849213
GNAS,0.0718924282128626,0.06743914981167153,-0.12244169631999217,0.012061189821487637,-0.12456901740505927,-0.0787253927270572,0.004763120216528181,-0.27052376156820895,-0.2295693972764849,-0.0940778464104676,-0.004731787463713522,-0.0006498130277893368,-0.09662556540563859,0.14157502398670918,0.11132616602813912,-0.12307971195858415,-0.027000485566719613,0.08257189652617028,-0.15453628882275608,-0.10282550878513093,0.06487590166318652,0.0005058564829321618,-0.016972544476081285,0.06455286005104993,-0.16674866804635577,-0.07293962624577914
BMP8B,0.051942825111368426,0.1108719162353558,0.10561424315652407,-0.007406327301769859,0.07454584867215229,-0.019280952969367483,0.07122971789061623,0.2566554390339515,0.005868116945380738,-0.012293467414219873,-0.011686646460186996,0.05980071999413246,0.046089306577874654,0.16321288213657947,0.10464132641866404,0.030130088981119192,0.04966544752412181,0.06611009213651106,0.11136932979566637,0.0784807806286532,0.06369575650070768,-0.04131538514549201,0.07670752039199595,0.10519581765054428,0.07119580853584477,0.10748311005731609
LIPH,,0.016189085347073248,0.05205921140086522,,0.03949726573499971,0.04925218730386815,,,,-0.03164738436625335,,,,,,-0.05361338292505994,,,-0.028267547299519826,-0.022205490402263682,,-0.05225826476503468,,0.09381999628442737,0.14213117224547836,
CCL28,,0.0091146864716617,-0.00754842370339398,,,,,-0.011114312224227482,,-0.05518144268141517,0.05254027013422643,-0.03035032605998202,,0.018095463946009277,,-0.07122290141725954,,,,,-0.047923445401352835,,,0.02575119125771903,0.05027665439432436,
PTPN11,-0.029617988498715678,-0.037292554519047054,0.035042037326107965,0.05547924612271536,0.026536037452383487,-0.05238644468798945,0.011426008139220442,0.0005248854853908275,0.09430933713666567,-0.04559905331560635,0.03620715816674143,-0.0600814191774692,0.15815220548956602,0.020435922464862498,-0.07371930650176332,-0.2130417787630781,-0.0343417258315818,-0.116725213950305,-0.11736260802040804,-0.047161594463193554,-0.06464507360821765,0.01402411422275244,-0.061036646326353666,0.037267021282753776,-0.061687555705236576,0.006693908764798535
ADAM12,0.07825207640164003,0.11063945981937344,0.11518458009903675,0.0018846588242692932,0.015643841795830116,0.05959868106704858,0.0732992954231587,0.1418575295329104,0.1896277026308928,0.0892862896081152,0.0462418481170714,0.03978610449406321,0.22752574577977225,0.16520671097723788,0.10663819440149534,0.06401689124582652,0.01953263450927035,0.15075823812285857,0.12143149368758024,0.10613629567115306,0.09811326394195208,-0.002233617899809875,-0.0006726791164584259,0.026279313954440876,0.08856744708770602,
EPO,,-0.07553218491666744,0.05104394828455119,,,0.06970730185784892,0.006852207238639134,,,0.00489453800725728,,,-0.0401704706702596,0.027377837825666784,,,-0.044499760660156214,-0.06383122227444797,-0.025995114265583846,0.04132893990588495,,-0.04179172781125391,,0.038614103401311495,,
EDN3,0.01921749110506989,0.05905518819462241,-0.029476836101149442,0.017260637256731774,0.03353558961132612,0.01434938075895531,-0.03377919993949972,0.020474026217764833,0.033719763069866564,-0.0077463585148519355,0.014189131024026892,0.03377792030741417,,-0.03497095375447791,,,,-0.027115535190275302,0.10385601613560945,0.06760048611565633,0.07124676206965534,-0.008028011576825292,,0.021142288383403245,0.07034450506622757,0.09608539175677124
CCL22,,,,-0.024049075392106697,,,,,,-0.021626391497559707,,,,,,,,,0.019794903350229223,0.008493463719738676,0.028727278799685972,0.009713837129471919,0.1072704200132124,0.009140576764276749,,
CCL2,-0.0341397022375093,-0.02097844977927826,0.06901823114352446,0.013587931590400648,0.10164950379711263,-0.02768820043128609,0.0412896394443393,0.08552430196200299,0.10856290719927238,0.11259309198539015,-0.016206108649990607,0.08966829024063275,0.03378920936754507,0.06808604194429359,0.09814385223010076,0.1604024292109769,-0.029380037911796664,0.08370691606282839,0.223119995383859,0.12382310878125401,0.023282900254919314,0.0401556699138129,-0.06586590617409967,-0.07904296955661543,0.18718760607834553,0.09013774504981584
DSCAM,0.06092356151832917,0.0954518164393682,0.033253338422614895,0.07098207415660045,0.11147951030243308,0.006703703749291025,0.12771572580716098,0.17547771408100662,0.043257808591083545,-0.021189129272316806,0.010127588447350332,-0.04135966753094174,0.02527977171776127,0.02612962079816062,0.0888914884367267,-0.002645148434590154,0.07109346550379896,0.11505880514776126,-0.00961655427599229,0.06167270144359905,-0.058608683220585565,-0.0726872619707091,0.0933739142197705,0.11227343285178241,0.07421139793749522,0.019784949415037813
GPHA2,,,0.10886131343997707,,,,,,,,,,,,,,,,,,,,,,,
ANG,0.15813626375800763,0.023620349607477116,-0.013663178690310569,0.05099689246089585,-0.0697086322637091,0.06009559042154459,0.041110590068017094,0.09962214959255235,0.16377240723829964,-0.007042673441878756,0.04517444059938377,0.04222270033549812,-0.05681572907376953,0.13539036734884166,0.021485700903336378,0.017110720866140856,-0.018251480977979267,0.19861425580835498,0.10200419505929617,0.027566020075845098,0.059611410433611366,0.010363065670984476,-0.018266743295489718,0.19758432463282385,0.0902010706454787,
FBLN2,0.09874100754156673,0.057439342803487524,0.03516226304165837,-0.06704272449590855,-0.006750496217371666,-0.011555536906229366,-0.006501121165414362,-0.03101212468825286,0.05442069645721868,0.010137943245618902,0.04052890632877,0.008925000210551827,0.09714319514013309,-0.019222453716609324,0.020362262003173773,0.027995365074605722,,-0.0613471533149427,0.1894685033113472,0.152416813025363,0.025072963814210474,0.03710241133785479,0.0663079524771462,0.11327934061443921,0.06597992709082577,0.02022506038107622
VTN,,0.0552562943364893,-0.013754368292579531,,-0.03609214683981814,0.012649763008495027,0.03713842743536115,0.007230763485605605,0.09270894101887228,-0.004976043729171803,0.055833989852687636,,,-0.03792074132051093,-0.0013217865405908333,0.0017665932892592473,0.009770655144959652,,0.05593443804334172,-0.008859088936666622,,-0.019802090614790477,,0.019862924305669834,0.04377204384663829,
VEGFA,0.13039916732545415,-0.0944297510011827,-0.1551472742308616,-0.030967925540646743,-0.10476612617434108,0.08447959736950594,-0.024583320642014624,0.27444017888954747,0.16155778360676248,0.027950099317314795,0.013208673681802114,0.05226606893247974,-0.16117464696337244,0.16175920918836664,0.047690627220614165,0.004606742514931406,-0.002009236108531553,0.17169415947850555,-0.088512235369159,-0.14853434842415184,0.06311934017150732,-0.04409542203372933,0.14845629109893954,-0.1135884347770152,0.2165331130476846,-0.10983110449366104
F10,,,,0.014635460711375886,,,0.026044896306153698,-0.072838197308977,0.0652904859741439,-0.0135265683516001,-0.02905236557025726,0.10418999428581913,-0.032194102639254533,,0.016143237236475386,,0.021497433181765578,,,0.013439824166362519,0.06603506987036156,0.012507374753678607,0.005309925619919956,0.07723744161343675,-0.016025765300546918,
SERPINA1,-0.06685045283593788,0.12290913715409144,0.10798048189311865,0.008560023512675244,-0.0017733504327015882,0.0252699819028749,0.02869970978159648,0.1093801164887987,0.16159652700705598,0.034351462428346774,-0.0060908399943192856,0.033678999550447744,0.07291361108610166,0.10007784626454774,0.1055365711936622,-0.01913917650892443,0.00048492076278653116,0.03321785216063827,0.07132802827589416,0.02966890395194927,0.04729981933876843,0.021921878875957604,-0.005420181097954943,0.028143283994386883,0.07961235418147847,0.028174278419943397
VWF,0.07942010806393487,0.06099714045377604,0.20952290992402856,0.009037459351956996,0.12579051655077372,-0.042308410168785095,0.037500945159471576,0.05898357526599096,0.2493119267142425,0.08586484397186653,0.04977404003000363,0.027166847961985055,0.14201940450738995,0.02275000101379098,0.12262995656083778,0.1221783422283484,-0.014336121804624105,0.08195911018383863,0.14758366601184897,0.10358971670884735,0.10663886228706018,0.07007134969988658,0.03676695020357347,-0.0010050141345506797,-0.13575687363724914,-0.011611587800425222
GDNF,,,-0.010072888141388504,,0.07758687471982184,-0.04098228937412659,,0.10974242987410371,,,,,-0.016356383685974085,0.004159014872046839,,,-0.07620662646254989,0.0234698243002394,0.043245503784766805,-0.00593865182670362,,0.06847726131217642,,,,0.0841330108624617
VASP,-0.0035800811948010574,0.05086409568210835,0.1670683145910447,0.009792199614895592,0.009542424831450817,0.01702934411808527,0.03610815247756211,0.1978958591103458,0.14067946781929447,0.07238584883275564,0.018869185492354675,0.057837319286494,-0.02522764002669084,0.09442038329850817,0.14055291581073276,-0.0376286011568135,0.06105425112519453,0.09534334995497687,0.09058542504399669,0.03086666629043229,0.05412467191345107,0.030634093628942614,0.0269916489135804,0.11014763348464611,0.10819382339132826,0.02024284509163485
ADAM15,0.03353363477427273,0.09316661206702866,0.11450435890399531,-0.05692972911066044,0.038620214411480176,0.013601794009253532,0.05163083133280927,0.2024097726788584,0.10740654695099464,0.024819841697602704,-0.012805248176115171,0.05848208285532375,0.13104474605793434,0.0325535651127545,0.03282525622442636,0.05900917622108209,0.018232653301526104,0.08456489394770446,0.09540614602720214,0.1013370947002676,0.0815065006426814,0.005150458651692735,0.09424721350167334,0.17076008535677104,0.09855273394853692,0.058755241174843695
WNT2,,0.023502242023797196,-0.026888898093289974,,-0.015360639852662502,,-0.018432681304801524,-0.054758648580569086,-0.07744252851756643,,0.01868501367478118,-0.03196114862226379,,-0.05502737059240457,,-0.01767024301905321,,,0.04263996633008611,-0.02773686550050742,,-0.011255824482880204,,0.08120008489537159,0.05999403772067297,
CALCB,,-0.01577808369055338,,0.012765090398028665,-0.00883881908527683,,-0.0452129694217944,0.0648517342238254,-0.0038712509914545943,,,0.013599883354644602,,,,,,,0.09726188054978399,-0.0004418852093443303,,-0.010031211060143074,,,0.07793022936821664,
OLFM2,0.0007431574450822491,0.11620137722669102,0.12045276289249274,-0.0008718945870045924,0.055713368277131754,-0.021678990008817265,0.029606035659119553,0.00039727894342530553,-0.0710605216099677,0.01900195707023663,0.009285984830684803,0.043156182024007436,0.13469965549642354,0.013115004480123767,0.008103515406565854,0.08280682958232556,-0.10443262374235555,0.07006054312470818,-0.0715165455369352,0.0034248837490690655,0.014797554064866245,-0.0083916971383567,0.07356682288958968,0.1168624767436982,0.05291856514653201,0.03265895475957222
MFAP2,0.06198900954436297,0.1163018061715013,0.10615791129636681,0.01592962068618878,,-0.059002643444404174,0.04517456860117351,0.25096699110864257,0.1349423003071244,-0.025034904944910823,0.046574069938470165,0.03485670243742193,0.1880122930339868,0.05318553067083189,0.1727982354696837,0.0812280521817541,-0.008872908233438986,0.034129036713611303,0.10909644337117844,0.12800918679885692,0.10284142392826502,0.07799091294295551,,0.17354300220296887,0.09333860171526386,
HLA-C,0.16796083383107877,0.05498144836462647,0.063781379805217,-0.001735573912248858,-0.017245058299473873,0.014917898413507073,-0.0014773870321426257,0.12113980718374243,0.307204506991784,0.06261316158711104,-0.028580814928664038,0.06230336442563613,0.06954216273531559,0.18110084544655836,0.160087285067891,0.1899603947430384,-0.00014445133359466372,0.009456270411720109,0.20764817250973552,0.03692882898726827,0.051393022474578325,0.07250120336560271,0.07648485241734425,0.05180342581529666,-0.10903211835603689,-0.02255069012703823
THBS1,-0.012353960134660821,0.01726021595037205,0.039032269449006035,0.0032294678841180884,0.059068947492219206,0.007933930088436788,-0.03495103796975041,0.22305119756591782,0.045065035392049334,0.1664856080201272,0.02352674471427566,0.07069800399976954,0.006695950372362415,0.05149069538006761,0.1269290302584474,0.10516262126346804,-0.051512112215873235,0.08704206623976755,0.030409387472092545,0.05496062505029583,0.05753359898547185,-0.02862988505139,-0.012953029243052869,-0.16246496893222362,0.15129037356269462,-0.09575747047437749
HSPA4,-0.04011107245083162,0.03126125197869378,0.015106596872161525,0.01659182609126417,0.04673405506369789,-0.017853621004367007,0.07122206220169992,0.13730530317573136,0.09070970998289622,0.031776975762150945,-0.010031973183619432,0.09441701914426004,0.03337686597191724,0.03889924673559338,0.05932069963386718,-0.11134702742410994,-0.07211719150515017,-0.03135037864640208,-0.0571436199457302,-0.07017651598293835,-0.040949209394163105,-0.003144219318743718,0.009958824958109024,0.0263906464440874,-0.01056959131234678,-0.02589233900816985
LMAN1,0.04609752947017388,0.004980894860683949,-0.023987382171732824,0.025484581250390877,-0.13534454537963123,0.010678211750721117,-0.03046787401464452,0.14900618485408232,0.2767177062430415,0.03459284193547496,0.0038205009436308485,0.1240889814025236,0.004270871884057332,0.17378644781303504,0.01202197487448291,0.04077243719627625,-0.0563982814243147,0.18352601943843969,0.007650955935200379,-0.08143486454655098,0.012806333174614699,0.04643333495732634,0.020174571298924252,-0.0674381007565118,0.06776315704731253,-0.09545985837248734
LYPD3,,,0.05864768974000558,0.04766116871859537,0.09182460595911889,0.06450103283396937,0.0028123946496032798,0.08472745164255119,0.0254279332670803,0.037407872515791835,0.07168517939475201,0.01875809707401735,0.15291047435487068,,0.13457382386016975,0.005013772615130224,0.06414747170312902,0.010608138371310444,0.10112133243043661,0.003329289301127361,,0.024714393544578866,,0.09793331811182035,-0.002083311001656148,
APOE,-0.14072917239476854,0.08492588105139225,-0.03866025930276831,0.016121272115438765,0.005436066012259463,-0.047043554638090505,0.023024566432770524,0.015368535938027273,0.23078052622655415,-0.018443879826304396,-0.026522839596336424,0.05107322475250782,0.06145038409655651,-0.12103358356276896,-0.03774306050374998,-0.051220842971849555,0.05234297452225821,0.011170182742215864,-0.003185446828981536,0.022123128902938494,0.09921088635388002,-0.04106528251343769,0.1294228685921303,-0.0046052253048388,-0.2307662828304387,0.03228358267942962
SOSTDC1,-0.005125820496059234,-0.062031808685206365,0.07200350515859437,,,,-0.00914508092705203,-0.06482803690473614,0.041914898388204634,0.002187744153344202,0.03766126748285758,-0.017892814961421494,,-0.032868711360003355,,,,,0.017826322252964596,0.0013061313748198317,,0.017297115803164672,,0.043027957723837565,-0.035135249033255454,-0.018102196739137297
ANXA1,-0.04754887381942316,0.01135310961860221,0.05194150096934846,-0.01958307144542199,-0.10182974073559646,0.06177835300346981,-7.211467619324549e-06,0.15093797045368737,0.30121787652419246,0.04899704147883944,-0.01977900459941569,0.061642350935281566,-0.1595522125289172,0.1297093424916183,0.01852000240103342,0.11305426755372207,0.07701967949840723,0.2129931396530981,0.00863584390256476,0.005446954122889639,0.08250811122158125,0.008528890118775688,0.03780770833026972,-0.10903488925492236,0.10602818838498831,-0.011635270343998836
WNT2B,-0.02529325225691439,-0.0328704388081483,0.028945392288909723,0.05888057766513909,0.09195539604197067,0.04415250458577959,-0.030996561273321895,-0.00733615335368224,0.030170000355119343,0.05728532246556127,0.008184746157532254,0.05093805851262661,0.03983376892407375,0.039632800656183596,0.04557493334725421,0.10607089344053618,-0.00782102898276423,0.020581601692921312,0.14348558583852297,0.007342531902898184,0.007147231515926274,0.0007749063592564239,-0.06033599676757931,0.08634802428508491,0.05728305731118706,-0.008048938130301124
AMH,,0.08044734548917445,-0.0036448737786249695,-0.004047648631428545,-0.029419811915582867,0.024797274382550322,0.03230500863370334,0.10893364449185358,0.05545937704959182,0.033021190587884254,-0.015835908688958684,,0.05723884466325898,0.089053311246281,,,-0.061575162770852065,0.10111867646167272,0.12219472135180008,0.04849250235179716,-0.021859961613019962,0.017647334790836338,,0.10826063191457683,0.10730203924622389,
GDF10,,0.14655213457896052,0.006398438470253793,-0.06466055113371538,,,0.01229587541616256,0.026403647459377635,-0.004235904821997649,-0.044139072002385364,0.05446093877223923,0.04694029152112413,,-0.07049118139086129,0.07106525394880626,0.0936294251125689,-0.022812830255376008,,0.0601765760614014,0.07134057898924116,-0.008867551304378324,0.013520214846627417,-0.04097131048759181,0.09645198912812858,0.010705874211535148,-0.06262813317950622
EFNB3,0.08899334092639483,0.04674756426011043,0.019755534072668522,0.09261030101679132,0.10392717004174319,-0.006247125866962885,0.011755627331387259,-0.11847324341927497,-0.06529928439494229,-0.05081355290449849,0.0027337361981338024,-0.021613980865012306,0.00958849460793594,-0.06717633481280486,0.10435249767990001,0.17987250794560602,-0.08237783421168073,0.09259914878082108,0.08466631160283869,0.01056872881196961,0.08217592889435693,0.06461274839006993,0.024506150530330013,0.133058102814418,-0.07040367058066137,0.004118852451693635
LTB,-0.00844949759322522,-0.003862702568460276,-0.025788129721078485,-0.048811276328810195,,-0.008685304958524317,0.021760121487062307,-0.02346367030355913,-0.01609001038018708,-0.01727493417479303,0.023243224215878627,-0.012872402862317155,0.08734219442990557,0.013497662645145897,0.0921933991660909,0.1499844547627565,-0.006002293570085234,0.0888826687141021,0.045518779054252695,0.0765919267835448,0.021512883185942064,0.005290447508773136,,0.16411410020678263,-0.008843682854684258,-0.001400615684979166
ANGPT2,0.056845803819661755,0.12150791917257321,0.1944556942067536,0.019856444661425922,0.13543050865069547,-0.020783609812543253,0.06319818112492501,0.19873177316347151,0.2977537050458897,0.10064330237995042,0.09202658601521402,0.05892643841313126,0.18557121137220844,0.12295195705602188,0.19154200392056334,0.10582007905273451,-0.0031788657425565513,0.18359851295998605,0.18086578188869473,0.11341500929126595,0.10571834630074081,-0.004304226737177281,-0.022234423438662117,0.0019497414052414277,0.0022157787032264687,-0.002266084934383618
NRTN,,,,,,,,,,,,,,,,,,-0.05126406251711531,,,0.04956622461568139,-0.007698571174356779,,,,-0.04864767514956767
ADAM17,0.036723664372177174,0.025605731279947155,0.0346870274326052,0.09157662113670105,0.031629297217445375,0.01653429902949933,0.059950498434243875,0.15965644222708544,0.1627337861376392,0.08325143766808217,-0.0001545436196741551,0.03671585114408036,0.01690433158902904,0.07938417044390081,0.06055397769811543,-0.02974321662421823,-0.04368161735590796,0.002426440920401514,0.04692774599259489,-0.00741677720298676,0.06804484674579453,0.057815941915569526,0.04364423667319098,0.053046669483734946,0.1884214994172446,0.1131430734405851
LRPAP1,0.1166427921327363,-0.041828260350065656,0.12461865927748503,0.05873159496817021,0.08808659364816769,-0.0315102509747064,0.0753834973615892,-0.019065731341311974,0.15522097911304497,0.027525626947092825,0.060781228061451475,-0.013133055476204039,0.054011238310700024,0.028598440097140982,0.10342314087383639,0.1375345650304868,-0.013425414332187711,0.08527354407587451,0.12844786414130172,0.0872168911892643,0.0478475655047396,0.045100881986755166,-0.04371636439894995,0.05916399541921812,-0.049372510483615586,-0.012166529413930524
NID1,0.1443767785619754,0.043239939652407196,0.14738451254467927,0.048682552387834845,0.09168311356340253,-0.003499937111044715,0.030228966006469158,0.21688689256381022,0.29117929087193267,0.04371345026046382,0.015217500635205763,0.07550323748326496,0.0947255817042034,0.09207635644428783,0.1667007557476648,0.05894301526697996,-0.05137276560191615,0.15577896881188855,0.08421290038128727,0.10606408745207889,0.13662852057270555,0.04260695885738739,0.0476723585038779,-0.034792555125523074,0.12812945538341788,0.10863096458985325
MST1,0.08122777287163234,-0.00825415838175044,0.016887228219628708,0.014490973543870453,0.032691925319475484,-0.009251726371098086,0.036712736346857684,0.13516031540984047,0.19333065634753194,0.006250879846154767,0.05747154557758879,-0.010725367213317698,0.03650352899836405,0.11013558384750191,0.06478292491133428,-0.015930121832488518,0.07427362488159266,0.028406588197162106,0.16895654812785824,0.07141271034249994,0.002068854786449277,0.004295220483490302,0.008572373844627244,0.20540679638089393,0.1439527569580876,0.11118700782296144
CCL14,,,,,,,,,,,,,0.10910475260044825,,,,,,,,,,,,,
IL13,,,,,,,,,0.03505380278201269,,,,,0.07053695771870021,,-0.025277889484513986,,,,,,,,,,
