,MGH258,UKF243,UKF248,UKF251,UKF255,UKF259,UKF260,UKF266,UKF269,UKF275,UKF296,UKF304,UKF313,UKF334,ZH1007inf,ZH1007nec,ZH1019T1,ZH1019inf,ZH8811Abulk,ZH8811Bbulk,ZH8812bulk,ZH881T1,ZH881inf,ZH916T1,ZH916bulk,ZH916inf
IGFL3,,,,,,,,,0.0345403622217653,,,,,,,,,,,,-0.0009987703044381953,,,-0.022711737923732447,,
BMP1,0.006257998575247905,0.06743363071898724,0.31136636604389706,0.02002724524950632,0.042807803221680596,0.12476922641751603,0.04487721298848013,0.1387681529696315,0.42271491482752277,-2.9292129846741232e-05,0.040964081472886105,0.20662435760734305,0.0929398307172525,0.14113664961089548,0.1313884416548156,0.11153054837869011,0.09777156337961122,0.07472189486305959,0.1647313596433492,0.02835708317640568,0.03170185617004093,0.22511959093573924,0.04116062350128188,0.22923435145929172,0.11909872079496736,0.10957756932042356
NDP,0.10652446183490882,-0.11263303162291745,0.05712128938472034,0.05416789719527053,0.06960857064613647,-0.009112815067057637,-0.024895470086496802,-0.03502015638019316,0.06745482465340716,0.05229041054692524,0.007309237557972439,0.09118335799355085,0.11251191279232384,0.03477710815523432,0.03038830062647066,-0.13374009538109277,0.010988325383415659,0.04443132185392496,0.09411029781188147,0.13087092810118628,0.004358293910489876,-0.0913648172564138,0.01170793103071353,0.0355580430550006,0.008745967078756831,0.027349587559765222
TNFSF18,0.06452919169510671,0.07763666485589764,0.0338045252523411,0.09168848477687695,,,,0.03443563426890812,0.1028581279928929,0.04967173808080671,,,,,0.012765344749726524,,-0.0021067335808176205,,,,0.00017764400586486908,,0.06550154896150083,0.0569022299281391,0.09570599670363478,
IL36G,,,,,,,,,,,,,,0.006569187856148692,,,,,,,,,,,,
RTN4,-0.016654886188562777,0.08496527323607356,0.06096601030297979,0.009675308947245555,0.01818776055128828,-0.022445130595764386,-0.014710868849246885,-0.2113118399715273,-0.4394295622991941,-0.0025010367745434666,-0.00548279578300807,-0.29145913502372456,-0.08937567396719688,-0.14335164608661927,-0.009762795935191066,0.0025473177260830052,-0.035791615970881534,-0.14815787438954045,-0.05336835777865484,-0.010481165856888557,-0.1258227432687714,-0.08599568819227604,-0.08417607344561177,-0.11973059854313158,-0.008466720666860309,0.04682928920737647
HEBP1,-0.014870412560002272,0.04392534114076192,0.11602021633635473,0.028315571014972413,0.005272920395957066,-0.027133313744623855,0.021755324119842396,0.14392379715516865,0.18279637428499096,0.0921578096988124,-0.03789624448994339,0.10019272223528339,-0.005164152497849095,0.01956187964025981,0.026487567355277023,0.06565998661093402,-0.10627931586871174,-0.04484290008120538,0.12072279373499901,0.09816099093156805,0.07679535425882705,0.060672255937111605,-0.024299923972764186,0.12203655091409173,0.027212733723193477,0.1770151954091146
WNT7B,0.04782842985392678,-0.00047276282501169974,-0.04259245227237983,0.01700216921275178,0.02007024837737104,0.008037980359099669,0.04017435443445416,-0.008384257527561209,-0.1591042848111373,-0.03641080288084323,-0.0351999811908017,,-0.01456178424341548,-0.042497100662381694,0.05451144463195024,0.008256813600169617,,0.03241110195179436,0.02847453933668336,0.0425517057502419,0.02275148041855418,-0.00971426811716709,-0.04480235581827446,0.02763741569227766,-0.06721818808261179,-0.01423254902707862
PTMA,-0.006811302788910907,0.14485007060132393,-0.017778148307486218,-0.031532182644501944,0.08623855477905687,-0.0880308502653256,-0.008007937532281666,0.31295073102303345,-0.20677755338259565,-0.03305813641521065,0.07745227727584075,0.3543776291744405,0.2022850040676306,0.08630238990915154,-0.006820126558306738,-0.017703145953178113,-0.009717220642305539,-0.22691754636266379,0.005581762231402606,-0.09471834774288675,-0.06692579340489993,0.07293396636002271,0.008993903028993399,0.22358574090539507,0.03400002427384308,0.16385414413770752
FASLG,-0.07709906229205299,,,,,,,,,,,,,,,,,,,,,,,0.052798493424965634,,
CEACAM1,0.07985165976459777,,-0.00799482173675207,-0.016400140913029135,,-0.02577526316447091,-0.02319668507606176,,0.0995542026771057,-0.006951782932545233,,,,,,0.1670885297066864,-0.017922219265135608,0.03161361460816769,0.028493738538747943,-0.04147812369057567,0.042291781157279364,-0.007649466206658651,,0.09824335179516434,,
PDAP1,0.0353263706370663,-0.07201466879401258,-0.06596176957410205,0.029011881198887278,0.07755300060014846,0.015497882735016568,-0.00012376083130903674,0.1479452668156132,0.33123540345548796,0.010124052091206702,0.017382073945114516,0.08705067746190222,0.16459517755892436,0.08247768129188114,0.02701617456844958,-0.11682894584839994,-0.018558799241111524,-0.029749400987191962,-0.00803474750869015,-0.032983366667604,-0.03177803829991499,-0.0237122327270127,0.051326789262402625,-0.055280688820286555,-0.034996168345175833,0.0751463031054501
QDPR,0.054163023649820105,0.028648690329032396,-0.1057200589750626,0.012289138191777137,0.018147139617952286,-1.6076469456820206e-06,-0.0324925218593406,-0.10839957043865167,-0.3447944351293851,-0.020273044501145147,0.05803400902262545,0.24024422394796568,0.0989262606802452,-0.05732582881236415,0.06689339010442996,-0.06091131289442612,0.07721784596053934,-0.18709834187425858,0.004538525761082106,0.01743840203532555,-0.09738589012083773,-0.052560862014244626,-0.08366484346180109,0.0012335621013712234,-0.058608432764613166,0.10887932496914328
POMC,-0.027511943667556805,0.07685337013274919,0.07273914873156954,0.04079757012019158,,-0.003956749880766323,-0.0403436508402205,-0.02042167526494321,-0.03160245228029699,0.026183896162905798,0.04669341444986714,0.08736835828489432,0.044635858894365,0.004357933142313443,0.07953738386018164,0.10137189171823914,0.11181463491756216,-0.012061374473612736,0.07825185361343864,0.11160800643178166,0.04218998273775464,0.04519036510592521,,0.14115862107865879,0.10486440990316122,0.049201319313793825
CCL18,,0.05895290330922321,-0.022753920912055515,,,,,,,,,0.12568064770968074,0.1362223567520673,,,0.023684512271011933,,0.023859869014248334,0.07531414875811579,0.01415326152682404,,2.0778601800992062e-05,,,,
CCL17,,,,,,0.041423182612684344,,,,0.03934206736704539,0.07537628427865499,,,0.013809832650317782,,,,,0.11649378768390459,0.036380745437410406,-0.033431189292640016,,,0.03169074645547459,,
VEGFD,,0.002427297724116878,0.056860471736689164,0.007099486555846671,,-0.06530782372578929,0.025648866842373125,,0.08953797136954325,0.0031260798304127385,-0.009321204992520695,0.03288998420651856,0.09958129294407943,0.022113726117874224,,-0.06076809221124158,0.004252629419831594,,,0.06266978232883211,-0.041174029461292456,,,,,
TNFSF13,,,0.03894122229991968,,,0.03737477431133584,,-0.02737497033431955,,,,,,,,,,,0.04768395316975464,0.024441468331035485,0.04897273093604042,0.0033618673992284083,,0.06392368700545703,0.05203166855955808,
WNT5A,-0.021497706146374217,0.13958797974877635,0.15458001354434966,0.02476722664349474,0.12916525739193352,0.06277041088249302,0.04896593126859544,0.21317789551803584,0.31668763410174233,0.08861372643107424,0.08380541910384444,0.07615231164310969,0.07987183882986663,0.0649769801816239,0.08686351847532205,0.09066816564811309,0.007553576029962944,0.13183722751202923,0.14356345774990886,0.0677954686814593,-0.00539230323257016,0.1268157496380807,0.062513057118752,0.18426232680420399,0.1135878366441481,0.09877773121597362
CXCL8,,0.12434725712979855,0.057400613203864886,0.05493314422842013,-0.0838304372643223,-0.1250145578546722,0.030091003551633695,0.03895269922758182,0.14421622219832586,0.004434988767531978,0.03283714287822204,0.1677883335582518,-5.045615957789839e-05,0.07936217295960547,,0.020098868533790122,0.004921250309714245,-0.05662059951374868,-0.08531686388957807,-0.2487884050132924,0.0016346035770622245,0.012881672452458446,0.00963678308153875,0.09137428850861638,0.09490879775331036,0.029190811950111386
GRN,0.014273869509764803,0.08588101215020952,0.32035166769821327,0.06899085029512396,0.1309165803164317,0.11462565590254098,0.005919166410453586,0.09896948450669457,0.3511239392748573,0.08526521043793844,-0.0075408072460154294,0.3152387576079343,-0.013309011904907643,0.05391188427400346,0.18246679332874965,0.20790870889374496,0.06098033813115424,0.0654748737331333,0.20903839327415716,0.0978225943021988,0.07155049255587914,0.20677407419993932,0.19451613847584714,0.26803569322053045,0.16525076192976967,0.04856745475395662
MIA,0.08268447503737517,0.07980771115201937,0.004513041991911222,-0.021411358029837794,0.011468995189774489,0.018687437035698258,-0.036085376849585855,0.09931606005681355,0.1412661288632413,-0.00015128081087081258,-0.005562813471837694,,0.049016149632056284,0.02741615099137335,0.0581991681546885,0.12268190073251645,0.03557144365553739,0.14682546117759462,0.012459343608682404,0.10041084037657516,0.0832368926324484,0.18155629156491623,,-0.00478241914771776,0.04284970367026847,
COL4A4,0.0098316766930972,-0.003205524748820779,0.041883128221112446,0.0021931575129412826,-0.005460766437675507,0.026065643422716587,0.004432621749543251,0.09342078483356225,-0.0087239570785178,0.052303459611102374,0.04650273592696509,,,0.02208387530956655,,,-0.007588293792710382,0.05934904673885136,-0.01697520138327603,0.041956480749829904,0.004521734691834684,0.014877243248925469,,0.094531222080311,0.05699502212154923,
TAC1,0.012170346845345377,0.05715556405833062,-0.045022979044178985,0.03397198581992056,0.20103367169851163,-0.0639301849457737,-0.002156513449879027,-0.15944222175252673,-0.3303024230059538,-0.0465913125609116,0.016373985669746675,-0.2470839871824299,,-0.11578129238059699,,,,,,,,-0.11247957753348216,-0.051775305043804586,0.06950210174457752,0.0077511024163859805,-1.6445039793585423e-06
RARRES2,-0.03063062991998676,-0.052693010458348934,-0.13482678644997576,0.06250670254745308,-0.06002743615616606,-0.1587357073884453,-0.05314709197055467,0.05080013564008235,0.40060760458398703,0.024821010988969387,0.06825868928144856,0.07346914472163978,-0.011931689703304766,0.07785505084657908,-0.033978339991758075,0.06811520512297393,-0.015446196597668051,0.04351240645057387,-0.02680290901640377,0.00959859539286251,-0.030242839997439177,0.03665119421789795,0.020400035354639075,0.04386693930716176,-0.08206409866390305,-0.019168401229558565
FGF7,-0.00040743338381166026,-0.011143592169304902,,0.04046603806341017,0.0036069475210277232,0.011287714934279061,-0.04612958170701765,0.101060858667576,0.08129529898972848,-0.003908697033233404,0.03952833596413759,0.01621759578633067,0.030727829421954806,0.03261214268664907,0.11203320310955633,-0.012980454305052222,-0.03704075828074603,0.0886143235809481,0.005246160857989323,0.0023965504076253826,-0.003463755209013865,-0.0009168870428103341,0.0572382872651203,-0.01972270151831203,0.019003896826031288,-0.019216313230905835
EFNA2,,,,,,,,,,,,,,,,,,,,0.02051596211246877,,,,,,
HBEGF,0.008494336924816695,0.10512386893722139,0.2912684631178928,0.0216723022787211,0.050979430505087894,0.027757899501787094,-0.016185738191331206,0.2015751736913627,0.16922329898723326,0.10316823266335239,0.053427377195869895,0.12510283469474184,0.11473549286979197,0.0684837055474518,0.07294121083694922,-0.05259934588858136,0.10856800677873095,0.15843349541392643,0.006392495066174662,-0.011539910689855255,-0.025569986918724957,0.13257258073749625,-0.14470778097883932,-0.05085323071426443,0.09493662045527554,-0.011153000765237958
CSF3,,-0.03356624074326584,,,-0.029559089227924613,-0.0750144253695109,0.042305597287193235,,0.04559723583195798,,,,0.02250446804745147,,,,,,-0.0034897944540352426,-0.06808143278319272,,0.021148818361195323,0.06528841405965125,0.05296115253807848,0.06339201964102092,
PI3,,-0.04084986421326545,-0.049323958455104476,,-0.036103498022423464,-0.15749251000903472,0.001716945377569292,,0.06951069172154856,,,,,,,-0.02243110980062973,,,-0.12386043364060542,-0.20928539408405986,0.04634664762292158,0.053794125605706046,,0.03551488648516021,-0.04498915405274896,
PCSK1N,-0.014957458867134621,-0.03770793492497851,-0.11048764803952986,0.023801741321225128,0.14265531025717382,0.12383376312840234,0.026522767758630893,-0.07763515699539589,-0.15099450739905487,0.06297690883364451,-0.03647888691547209,-0.36469012894445607,0.08661405209938967,-0.12386296161523928,0.05046918379577066,0.07902316668719546,0.03376028719675768,-0.02885263922211356,0.0014468221679426406,0.09283001628138075,0.050599078222012865,0.003117453311810126,-0.041412956886195146,-0.05553945679279041,0.02091474132432745,-0.031246805423506854
NTS,,,,,,,0.07587686481635157,-0.023802985623504674,0.026653427714774518,0.043111844435294644,0.03774101234580344,0.03227695878781187,,,,,,,-0.058667336488539244,0.027064051592730138,,-0.03144756644037318,,-0.04949289265303355,,
SFRP1,0.08540332120225447,0.039222986598077415,0.07309500232103022,0.01631686796816271,,0.013195189316380885,0.02323874692923872,0.12016147052625449,0.05255776636654026,-0.01650503657698842,0.009487932890487048,0.09745611458951947,0.06974090942179739,0.07196681981259938,0.06896383291899473,-0.13486233425086522,0.06978516550078781,0.10794862981594693,0.09672637011443413,0.1260619950910834,0.0012374588373238362,-0.04680113984230017,0.11323581380240849,0.06345057240918617,0.034520375850711715,-0.047061639217368806
CXCL13,,,,-0.06427192352890183,-0.02304048514202329,,0.03414885644516419,,,,,,0.08320013934938049,,,,,,0.08322631996235148,0.028463775176803437,,0.054674332476823746,,,0.0773566395537649,
MICA,0.062389822552967315,0.017671629988220743,0.21303538357140303,0.0022342251462723053,0.09070812205589743,-0.02564881646537467,0.038548132339991055,0.06556072261367064,0.2354076764564821,0.059673166041353455,0.0617488619260194,0.01727420061886526,0.12826879684982356,0.08171136881090156,0.11196835639917242,-0.04435293951588777,0.061415867555819015,0.13621041350417315,0.12459353105344136,0.15638640724040656,0.052797981028163896,0.05824747446545726,-0.061830449402488344,0.10596522984217498,0.0635436013102771,-0.039209062697074915
TG,0.009396422437231912,0.07314766273973769,-0.07298415046162367,-0.0655286858839664,,-0.012477476699073838,0.035098853668468925,-0.023478735218385203,0.013466675538443346,0.03580122585820126,-0.024687497364529305,,0.03756699819515129,0.038149264792210744,0.04922952343614876,0.09331994519654034,0.03739091849889253,0.03685974530508976,0.018837718251549555,0.035427427779926766,,-0.022754859233545338,,0.0157853446802363,-0.009623014478200641,
ADA,-0.024951430499282595,-0.010326776473771544,0.17541863539674182,0.06074682215256532,-0.0005776842967469142,-0.028062411619204614,0.04546032980999058,0.10940894396398904,0.2889870240753375,-0.011738265181406561,-0.015660381200283076,0.22643922688293228,0.14822234043692667,0.12153164394225341,0.0062041971750767585,0.059492369775178834,0.0887013822712244,0.08163349743453026,0.08907408495454158,0.09271553431930582,0.04987984865974874,0.07694090596896419,0.013690358843914148,0.1811728160510773,0.055964069012512045,-0.022111956606901052
LAMC3,0.047972497600482236,0.105200691599623,0.34742732693636147,-0.05744707189656256,0.16401209509233877,0.1302772710284559,0.057646704358536936,0.15491872513023017,0.32792353137692537,0.04723234727723054,0.0665547344259552,0.09779593352103003,0.080914118923319,0.10630984520612899,0.12247253406903484,0.028795744174505138,0.13737504180909485,0.12095809956698879,0.18377182160263097,0.21394535776740933,0.1259754858387676,0.2529269615203612,0.04057252077363278,0.3068010299913451,0.22828236087764978,0.01374018251878477
CCL7,,,0.0691577110872818,,,-0.06407793586918507,0.03502461936688692,,,,,,,,,,,,0.030011491348282814,,,,,-0.06105000115861965,0.024185173417626077,
NGF,,0.0029411229847598344,0.11731344716378446,,,-0.11571412113689512,-0.03210146358958636,-0.03436993803406337,,,,-0.07742012170438774,0.1003322345919014,,,,-0.017985311790505717,-0.056267977432555634,-0.0010493384535267948,0.022998712593683718,,0.14543588751541037,,0.19837790028573202,0.06294774983028685,
TNFSF15,,0.03919210399642229,,,,-0.019522768638939696,0.01581596024484921,0.04387100395971588,,,,,0.0638181549809558,,0.13405832029519352,,0.04114184386207011,0.016465429933907153,0.047611008721474335,,,-0.06576069765458159,,0.12797464839041128,0.053196283134808155,
HMGB1,0.0090863892602187,-0.0089897489135637,-0.10648049535685496,0.058219530059605215,0.1551632274832992,0.032201188365337745,-0.044573614806255026,0.12769103697788503,0.2928575875400656,-0.04011048683342972,0.07486367033856929,0.1370578452944929,0.19921240216097638,0.049081083607114086,-0.10601686063748862,-0.07565768641323317,-0.08707491067622944,-0.13640886578324352,-0.011160139146666507,0.014174011251031886,0.008236613186070425,0.03314162662907214,0.005354919760196981,-0.2356541651585041,0.00787345891296845,0.07066092501070927
ITGB3BP,-0.033910023237756375,0.006762944071020486,-0.01329916686752116,0.0007059645572877264,0.0049993332793986794,-0.058131213984367186,0.03299599733252844,0.18900780208353823,0.31923738351010134,0.007292450416322616,0.057656722782453526,0.03750920968631626,0.1121053262451976,0.14386249293329625,0.062042074322859284,0.07532239343150583,0.02789354091825543,0.0635446943015011,-0.044532108857472684,0.012004102188216164,0.026758209268797906,0.0720210241574525,0.01754415318073419,-0.04011920391172566,-0.004835169734095671,0.06165143637591473
AANAT,,0.0022847577737099473,0.04465629180078746,,,0.013874930133294062,-0.03023325154064016,,0.038708258070047734,-0.04891606216297081,-0.045542879844332085,0.020409965053111465,,0.03040689200861428,,-0.06638772588629308,,-0.004680328710611574,0.03240933658238339,0.006080453474762525,0.06567506885033789,,,-0.01975560518465606,0.009995114427755305,
RELN,0.02511111624280186,0.05088552665972523,0.025641675518272806,-0.1100426955531019,0.006881967781232985,0.017222032568074995,-0.012585076561530198,-0.02551696758428177,-0.1566862945551297,-0.0008686383033216851,-0.011342487827726937,-0.02375647352201101,,0.01851047489138282,,,-0.008359918156818559,,,,-0.0020231388163158724,0.010127798461653854,0.13177637371232062,,-0.01636879272142394,-0.04165735870316848
IL15,0.0010168797904946878,0.06093566456261121,0.10144444674428447,-0.057250059982854734,,0.027260834056817625,-0.039403122395411334,0.01661373900204436,0.12471656981517155,0.006612223384904923,0.048821235429064046,0.09191450075007142,0.07912458149560417,-0.03884242071582522,0.059832080372453175,0.0939307920362627,-0.0704613397935981,0.023667048800565596,0.005753719999259801,0.08586254625101064,0.006114331080467828,0.005815110065023762,0.02383011064490849,0.16868211877621286,-0.024832049184838455,
UTS2,,,,,,,,,0.21678837665558742,,,,,,0.048650547023117746,-0.026905187822378555,,,0.042161563681465085,,,,,,,
BSG,0.013307174431342585,-0.0684731551503126,-0.03244326724984885,-0.0012970988387573212,0.028685186928707425,-0.10534642159892275,0.025591311547951384,0.08589404673864877,-0.0008689696317128014,-0.024639021715529372,0.0019461674118509747,-0.15778372036960847,0.04545194818744427,0.08202982630615611,0.0935468671244821,0.01940008520164623,0.013123555506100308,0.07833990010386303,0.049268330935699614,-0.02955665996262292,0.16265739061646997,0.13281978798650854,0.08564185530745592,0.02140423544077879,0.07640293395903781,-0.026311440768237507
ADAMTS3,-0.029244201465084416,0.00021793137875830964,0.10783415367320554,0.0114675559533093,,-0.047125491695000236,0.0568699595790841,0.03387498981088866,0.44433428791424634,0.020095660151474584,0.0419151532557034,-0.08166057845390792,0.11098281224109913,0.0026058841495488943,0.07802888805377249,-0.18633216638109198,,0.04952031142784583,-0.0342520834699142,0.1183261140318593,0.08144634886495537,0.02589474895311412,0.08398624108131134,0.03979495109927542,0.028492800714017094,
CD34,-0.012301089315046941,0.0342126965023149,0.28737870898792595,0.010211169979659419,0.139389598120474,0.03050492481678702,0.06659790447142479,0.09973457030371868,0.25951414945572543,0.07015580411294128,-0.007522967755476356,0.024446477513122414,0.09356668301221457,0.047829750449893994,0.06031646114976602,0.07176932777266985,0.09917992571076928,0.12412236526098734,0.21062111588519536,0.1644308054279677,0.0907408459415789,0.18721510047772924,0.12975787142438225,0.18384767989315617,0.11700098757667801,-0.05535127429730819
CCL23,,,,,,,,,0.1102864150486651,,,,,,0.019225848630825236,,,,,,,,,,,
PLAT,-0.0008116257583887939,-0.014979386165731117,0.17844487289462388,0.03752249997452849,0.10236269266933136,0.10980587354052694,0.02888226941164916,0.2102746263696916,0.385364593007512,0.04385497250431741,0.022080976116493883,0.027885506160308243,0.1621211479262501,0.15197788127000703,0.1434783046924987,-0.039620965060005224,0.06351718416945426,0.06818161035501946,0.0841328374374694,0.17946792646401877,0.08604976297198655,0.12435175425517535,-0.036405493748631494,0.1277579391357242,0.15860444033721843,-0.03596006971837718
NTF3,,,,,,,,,,,0.010878737930385244,,0.022209027666211537,,,,,,0.0917460447959223,0.10704786709682228,,-0.0016539202914568284,,,,
LTA,,,,-0.024480257974861145,,-0.02994532982384702,,,,0.011150817713630008,,,,0.00989254961706827,,,,,,,,,,0.076350546156109,,
CKLF,-0.03853512558456265,0.10418790313568166,-0.0067173495896039985,-0.034526720897239335,0.06758660883097159,0.0427803121151237,-0.011225017952672426,0.20164356084222268,0.40735278912463785,0.06765284993977758,0.011619943727606556,0.2051936844772824,0.10390208993861112,0.15627301567601903,0.10116032379726664,0.026398723383459898,0.089115450770194,0.14235728192615008,0.0658623177322685,0.13602312364495694,0.03400035351028186,0.0797661225408195,0.061276790677147655,0.04425462203491572,-0.03432479383337776,0.06966856769230095
APELA,,,,,,,,,,,,,-0.00709586738919438,,,,,,,,,,,,,
CD24,0.018774979026649506,-0.062333297673908966,0.029971936680516054,0.10001196966782917,-0.04011754836683135,-0.05714994722700024,0.0199464064316179,0.10370955713017833,0.10877748843181495,0.06395156126897374,0.054554748977260266,0.06435023756649771,0.11393302362920898,-0.03163778868402922,0.14692058595913823,-0.04725387298864786,-0.13262657314924342,0.05593620433603119,-0.011151344513692641,0.07309744470331855,0.05008362923983899,-0.1164740709494254,-0.044944030703157944,0.04876863725429934,-0.02516054386435845,-0.045144016175611326
HSP90AA1,0.00738576899684917,0.12649762834581127,-0.0989731121268459,0.05322850052532643,-0.12761021639668874,-0.03618064824811027,-0.03378545916517773,-0.22337297135247614,-0.42915889005132773,0.012697878741630003,0.03947133732582279,-0.351666197354725,-0.10102204607341647,-0.17913625280670029,0.023133480266285276,0.029208436911026873,-0.03825335075661547,-0.15204560455364305,-0.18491897833839452,-0.2789621176132646,-0.021994838184421914,-0.021285055657792065,-0.10878493767235083,-0.12467671071871268,0.00984265624661143,0.05352124019378964
BMP4,0.025444886732957014,-0.014721415363720689,0.10611625065031348,-0.02868223859570216,0.0899562346273757,-0.03714633925561856,0.012410927428809738,0.1690222762916057,-0.03498628279828427,-0.024131482853938336,0.028697286729033333,-0.018955891366435183,0.014083304360570606,0.012789482826996332,-0.025585660525546613,0.015993147063059248,-0.034067233190139004,0.03639139593982462,0.036774527214163015,0.0990924798603169,0.06563835718751787,0.05302415390673754,,0.16332110630478452,0.049639602557252055,
SCGB3A1,,,0.10732157762241744,,-0.02390230903663766,,0.02612737650795822,-0.014167102620712232,,,-0.012202194715201679,-0.005170344670081892,0.08194493807338571,0.014465646054502847,0.06758882213570581,0.01508486957392559,-0.017353228863869904,,0.022716538403597376,0.08165797616871905,,0.04697382104542912,,0.0635799393673829,0.015375010154565858,
IGFBP4,-0.020773919489511516,0.0697276940013638,0.33775468159661337,0.05596625466892092,0.007409685670305274,0.05218543488115431,0.07665448238108824,0.1669802130432066,0.34374614478232773,0.10759995222723154,0.07843331932511273,0.15307436221988457,0.12284822201642562,0.13997551265754976,0.08471877179976352,0.02685395626263097,0.1874594550111935,0.1244438996229922,0.2193398967337268,0.07308067173719451,0.100087322348111,0.31346791957827425,0.02339432666440845,0.33317571561024345,0.2891005689510911,-0.04996789196281494
RSPO4,,0.02911647493866521,,0.020197909989927033,,0.003451574880105178,-0.04225139685328657,,,-0.02768140553309901,-0.030783644725021316,,,0.039354369926700807,,,-0.0006960498433762573,,,,,0.015421530507371177,,0.07469974364926037,0.07283443721410834,
LEFTY2,-0.0007167936213842578,-0.031766458291274106,0.26249094559624625,0.05713729606026826,0.09852174210642833,-0.007817264557372576,-0.02613387132329345,0.15094812900677068,0.31800217978893547,-0.012322181198339138,0.035088298967462975,0.03454025413936705,0.05307891181247566,-0.039277265622018435,0.11970057341018221,-0.038927581320207266,,0.08454985551202837,-0.0020649322001315296,0.0821897214472749,0.11399963693860023,-0.01803640461895863,0.021197880108481337,0.0788495709822209,0.04313860150877088,
PF4,,,0.003862809217710082,-0.05532896845868146,,0.023211586566563917,,,,,,,,,,,,,,0.005643444880219684,,,,-0.009098095907242301,-0.03011555159688014,
ANGPTL2,0.1205021345000215,0.05157005327773557,0.21830333905068783,-0.00010854111729556629,0.07355246703282099,0.017631704542167656,-0.010454511407611913,0.3113337521603423,0.3438084257045117,0.033346335496035585,0.06017918582442673,0.1917152897397188,-0.050147124374226776,0.13730389254600023,0.14613648023237352,-0.032274006878189834,0.08103782803783874,0.04736389040311981,0.18535358539689797,0.1867455511180475,0.025333102368729883,0.07103033471203615,-0.0016776756171383146,0.15541312544241462,0.1881638098324691,-0.06014290027162271
LRIG2,-0.02176966992405214,-0.035550811081440384,-0.052365557103085096,0.01517274274092911,0.05114920285801033,-0.019514171576008713,0.008160481918826663,0.11473974234769216,0.16871963694736117,0.01415769603102377,0.002240191117094961,0.016847015268753162,0.09669168184988403,0.04675950137042046,0.025299693608031994,-0.016309800652972797,-0.009039138637026474,0.08415354100138131,0.07431107555372138,0.15678803554852364,0.03568691279928695,0.015811016679507305,0.0968785275137332,0.06400507792130357,-0.022465953326624603,0.02380356397098297
ICOSLG,-0.007709207197453234,0.0802634206140839,0.14235496007541013,-0.03692100043358188,0.09594495037144975,0.02859606585719012,0.025827302926749642,0.12568541723789908,0.14863219662802496,0.013735535190672566,-0.011253496479218292,0.15175341818444998,0.04865746528100079,0.07968240508786725,0.15616804705396492,0.01236318336500146,0.10778759981054575,-0.007042086733295591,0.12820282811295614,0.16130866019169945,0.104539167262682,0.0824834106316168,-0.019943940672658464,0.15598125378022415,0.09819302653761987,-0.049861663472318254
WIF1,,0.033059523659655456,-0.07973205217120345,,-0.04236884445691703,,-0.007065632091567542,-0.17721085619352814,-0.27100580166657,-0.04109437188686172,-0.02817562503771522,-0.1721844440371621,,-0.1209845578320533,,,,,,,,-0.013690472333912199,0.10298723844397205,,-0.08506208577422993,0.05948225197483541
NPPC,0.007964560498748495,0.006070649834367837,-0.08329673543556981,,0.00791588296332232,-0.043619705316850624,0.017114773827807073,-0.0496185266659136,-0.011542258392931676,-0.013890775431864863,0.011433282536129706,-0.07505525071976406,,0.042465554699866355,-0.02769007227616383,-0.061243131939539716,0.022179230350783154,-0.10063546197780471,0.06842418169822663,0.09643763523532252,0.052355587024752716,0.043737771783608,-0.03371436716339591,,-0.024745840645756717,-0.06902652458996429
LYZ,0.038440076170543284,0.16154471609357704,0.18699143684702194,0.023554704671738994,0.10524396960086567,0.06130326521166671,0.08104847066536995,0.16524436568508416,0.32192901130043156,0.02531215839253783,0.05039392226572151,0.3417466542603848,0.14005192608633427,0.08922806164159341,0.08281911615522972,0.09368704411901746,0.04500827140678853,0.08005811271802396,0.10698610330822349,0.13933759229699175,0.06543634629405969,0.12933956027260163,0.015624520683904422,0.2299096137896269,0.15697701765192837,0.01842903078519389
EREG,,,,,0.0593672857917198,,0.07919544154123939,,,,,0.07618570204658597,-0.007333598629514312,,,,,,-0.004318655530343013,-0.0037728359070886928,,-0.029266928382354784,,0.03189324448092095,0.10570801930190486,
SPTAN1,0.0014426181020155131,-0.045380180133020386,-0.008543919198543568,-0.023119953724288635,0.14447155906820688,0.11498376108887386,0.029555639747834924,-0.1311724731205858,-0.13907300998496144,0.06332029975942936,-0.01716859224930447,-0.34136098350117516,0.12197555621861032,-0.0841108207981927,0.0986151064610497,-0.07924320080436473,0.026239609584776426,0.1524377519549949,0.024700629158623474,0.06418620283859325,0.033934302882237206,-0.09968749538496165,0.018782915781159645,-0.025523096252075418,0.011576208561423058,-0.040771955439565334
PTH2,,,,,,,,,,,,,,,,,,,,,,0.022409151681665934,,,,
LIPC,0.04382177816594674,-0.02046633574407658,0.008096671320025993,0.03041058861489929,,-0.013677638773074862,0.0617894747986863,-0.011426609604371902,0.13884782331760104,0.06982073310522209,,0.02661301860319809,0.009078086722225426,0.056806056884378224,0.029085229929878147,0.06948774411303978,0.012754719098146194,0.1477317196833954,,,-0.03761124373372146,,,0.1368210822007181,-0.026412524580474283,
COL8A1,0.023786819006439263,-0.03485894558831202,0.20654976667531577,-0.03771512806855041,0.0019772236403464544,0.04427039017149362,0.014145871049035636,0.11936888227700378,0.20278188930768085,0.010539140176830844,-0.01868372168536477,0.14149129816696454,-0.09201451860953377,0.13801670022247217,0.09022473429265636,0.12792619713488612,0.05881653655637207,0.12470633779994808,0.0723583490090323,0.13997572850983991,0.08370029786663045,0.16669144379876044,0.11319306877463155,0.08356136574248803,-0.04929450246751775,
GSTM2,-0.0019336026599440974,-0.0071427110501914425,0.019018531334452526,-0.008202794576775217,0.032314902570665126,0.0067395417752077,-0.05292227743354231,-0.02084992186278789,0.16890023230193146,-0.03390708053231435,0.040971770862781844,0.0327923676427076,0.03708052919362026,0.01242804578916694,0.008233511603626127,-0.08155877853467158,-0.10692800075606962,0.1280643035111553,0.07005244877436353,0.07030352216015605,0.011616197726983435,-0.0377783343226829,0.05414946385719866,-0.002048094898513228,0.11935778728276743,
IL4,,,,,,,,,,,,,,,,0.0030962951905631583,,,,,,,,,,
SPX,-0.012227040896714402,0.030924026888130462,-0.06431478343876794,-0.02290027555623086,,-0.0352985646044914,-0.008504742494511785,-0.07464700938507991,-0.13268867032605786,0.016570975091469126,0.009809595152323377,-0.04491210070028096,,-0.14778274730409055,-0.01068722431884841,,,0.030148473640229705,0.0056390991483646746,0.06109608547601471,-0.06030927201181673,-0.13546162421678176,-0.050424201252711284,-0.029285195077214325,-0.11168377616463238,0.01822322212446459
MFGE8,0.01398270191892174,0.006855604210421256,0.22035160066596515,0.029841014380610313,0.029883310712898615,0.06752017756583385,0.030368836269346822,0.08584835540470931,0.15801220802399518,0.04405283038433342,-0.01062926354216993,-0.050576888637378144,0.010106625013478771,0.09226655617263439,0.05389918534946521,0.04252624915581341,0.06701583012826877,0.09480256154752079,0.03881820668414519,0.029359013281863862,0.09572513598515094,0.11926171560343901,-0.015999334093178354,0.16377583398882198,0.09258620503771765,-0.09741285331879813
TGFA,-0.0017134611848712133,-0.005876735318186655,-0.014368118779123357,0.05205968550746642,0.08433708783872748,-0.004188309399990309,0.02769984495412955,0.17371078876184873,0.17842670331627547,-0.022157652958232205,-0.005647705203172897,0.10093607000588035,0.09356607668833802,0.059438936893997804,-0.08111812689776816,0.04005496944940462,-0.003973227828818173,-0.0652193439273063,0.06498552711666936,0.11942277505828987,0.02589013326392844,0.06818871854334227,0.026572879096009694,0.0715693817679718,0.0856768680233136,0.14972182537594317
SLIT2,-0.020810409986363392,-0.04286727939321035,0.1385317855554943,-0.020196644736411758,0.0798073207051013,0.026312331859209028,0.015167226765639077,0.010089359870620186,-0.13479000593993984,-0.018939209785474857,-0.037975760324008644,-0.20185272525075812,0.08465861038589612,-0.11929673037205352,0.10659779378987429,0.0914840298965121,0.048096285628492996,0.08980989034762425,0.1393986750358893,0.09408431615396044,0.014673248102336856,0.07280239039170715,-0.018168394204589745,0.07296270318530026,0.059718738297337176,-0.042648652116460954
PLTP,0.0036833321181579935,-0.07284321482890804,0.03822366131496383,0.027966688336598336,0.20105876994564847,0.10080555868648239,0.05359915991469531,0.11053397355296397,0.4524353966363396,0.10576801988685255,0.0300176743836845,0.3609940060104864,0.11746901854284178,0.11619612505220954,0.029812131156199993,0.07729017830477761,0.018978210458027635,0.16148423045587038,0.21341457405404823,0.1256767404132776,0.06980754191598708,0.26196728534372465,0.03555716179456904,0.20851748706118953,0.14062069047043516,0.11593563170558452
APOD,0.06583910510828163,0.07917836951768313,-0.10419479235253509,-0.023095159282775862,0.14554714759180584,0.025626001690221455,-0.016608495208463647,-0.03939414932537838,0.1752180311631556,-0.00204348504795137,0.07802930870341138,0.22812069064717916,0.08770684866818113,-0.10472089998872564,-0.14096291723326335,-0.11594962634509562,0.008503553281580326,-0.1574617411926783,0.11149686472741442,0.20800365518366176,-0.0845022854345711,0.1415963238438089,0.08542072440523822,0.04848442616979537,0.11549025070612663,0.07846869022423059
B2M,0.03655277139158182,0.11901046366834059,0.417518865205492,0.04261960824000237,0.16600538588475816,0.036689983322985904,0.03820655934510029,0.1837574848531961,0.5137970789334529,0.08734303238899323,0.11307433264603779,0.40115319068120914,0.20581011843054006,0.25026955327736367,0.22595416249731332,0.061810159073880745,0.21945759970439785,0.14355541201010935,0.28345003963294035,0.2558863152148128,0.12842089293671297,0.2839414002241442,0.23977665603306195,0.30573845674870986,0.18516235994323632,-0.046532376526905436
OMG,0.047048972534530095,-0.0624184902045056,-0.12465027338132097,0.012909471249533505,0.07449307543759609,0.032213409396676086,-0.05000200573064791,-0.05821746589237468,-0.12532925414556106,0.00733239635998548,-0.018270288024838693,-0.004876948669564246,0.03546509049293749,-0.0864072906835639,-0.033388407182276925,-0.045283126849654194,-0.020493725640195356,-0.055285425562740326,0.11347155202125832,0.2314265491960328,-0.08357165364721592,-0.08595547336947179,0.04828703047327022,0.07192628896854972,0.002266362612734425,-0.012217380943849616
CXCL3,-0.015607931000478803,0.03962955087846409,0.03564602684847901,0.0019791330200761505,0.002835692564464992,-0.0861323033303066,0.04242235414811764,,0.013389306916688552,-0.034271131950225076,-0.029286381426389976,0.07386052331446803,0.1386385902182382,0.03151096813509511,0.06458901186237156,0.05939872773681667,,,0.023868385944300748,0.007496183365658886,0.11131997546541995,0.06514681171235419,-0.012039411689226552,0.09141504283257025,0.038102117801967594,
CXCL10,0.01831075100687219,0.057187934937040004,0.10659465381252424,0.01892596557011937,,0.041288365812583466,-0.03088780413702345,0.06376520317128448,0.39371223139370864,0.09808911743855767,0.029782124306362942,0.0670448093273434,0.11973734822979473,0.04251428454105364,0.029765348112268816,0.020614626793022405,-0.09748838951461844,0.008158724330700345,-0.0011051705136198348,0.010567597016089612,-0.023133921704638363,0.0453349249187888,,0.16663182786259953,-0.011749444501051753,
RSPO3,,,-0.05033944291206852,,0.0702938160647828,0.02075372870426479,-0.03908728350432063,-0.044938256379430115,-0.09961794295978312,-0.020308363653552795,0.005892772062220479,-0.13134870829632944,,-0.004323417090987217,,,,,0.08486354701115544,0.08404507099870655,,0.0781788195296869,-0.0863857697348624,0.005936751253415136,0.0030158720209759625,-0.06599627394476065
CORT,-0.02982150390032667,-0.06375070743229429,0.0593499239453274,0.03909499956225977,0.1438141153590775,-0.04741728417695587,0.007677682893070891,0.0054797503005679085,-0.09432639171908855,-0.01271652759543407,-0.018528937361537906,-0.032722966843320975,,0.009365907433542648,,,,,-0.030791934935146273,0.05431804079245321,,-0.08263910038284292,0.05609017963820234,,,-0.07463621364314012
NCAN,0.02048898810292057,-0.008490190236202903,0.045268114715249656,0.05406610287655206,0.18380877117757285,0.15052377535461756,0.010529492546149136,0.15098466430964474,0.12346848544524539,0.07191694253605571,-0.009963336887451772,-0.18166844829541473,,0.1411642789071081,-0.0782067513820596,-0.06310931587974818,0.0740621098608468,0.08657389013508049,0.06861314183877266,0.154965911624593,0.056760948202789784,-0.21204255120822993,0.12957692816192246,-0.0590585195029851,0.062004959588701836,0.05952352239350177
PRG4,,-0.026178861370378108,0.04092983859146089,,0.0486649592418289,-0.05094032212995013,0.04914837358364887,,0.14211086868719552,0.037495476419624106,,,,0.024832218621744423,,,,,0.02448830935872215,0.005934497631705145,,0.167720634703638,,0.15772676191705312,0.153497301724723,
ZG16B,,,0.042612073867967566,-0.002852389502996519,,-0.002645116683647402,,,-0.02043001856114798,0.01573824341310257,,,0.05523597358068356,,,,,0.007907471465945188,,,,,,-0.005860046248400427,0.05344806953670294,
TGM2,0.00217194733566608,0.08687395749548305,0.18308103506419635,-0.0037509629323373133,0.016160206101134583,-0.003185126049795494,0.017621210297449546,0.03414185997328559,0.2336067712067603,0.016889683661253492,0.06210933082855516,0.13681093975216446,0.0822932358580039,0.03200258135752048,0.06091521746213207,0.04441798638836539,0.11475815341473408,0.13681231209034742,0.10640690742183354,0.043028412940367994,0.05462659789538236,0.1591992383948194,0.011838720764755681,0.25446132927654463,0.17662359139594047,0.02975677241248817
VEGFC,-0.021594736119296958,0.0640033665779096,0.05984940082878338,0.06769277387423493,0.0836867333780712,-0.030871518945163674,0.029847335284873867,0.08134162241836858,0.058909843204226736,0.005771108065674977,0.004366623921278002,0.024127231758573016,-0.0054293085708765655,0.10319241013718064,0.08325182809076241,0.02245069839810895,0.124214614627764,0.054379477559660716,0.01947082999118343,-0.02327312940191202,0.0027135843006130104,0.14152673855136688,,0.09712421072460559,0.01949078850339552,
WNT6,,-0.023780629638997717,0.041265849343040985,-0.00033240161543758617,0.054648709160857914,0.03728798718160251,0.028315378879427512,0.03831079335388119,0.041375257715470695,-0.023548622052143843,,,-0.06923433718823664,-0.03217036180982854,,0.08474044448742064,,0.07285225939602014,-0.050237242136024686,0.06795342530109445,,0.0336054056887144,,0.008730531624948645,-0.011010003670716773,
NRG4,,-0.045393970525922346,-0.058764065840823713,,0.04341790714294731,0.07053554010879688,-0.03990732695049263,0.008650295756323069,-0.03193875049465351,-0.016587285896886114,-0.02694106155133921,-0.11374045664992255,,-0.02655670788939118,,,-0.011383477350506283,,,,-0.04477705145736164,-0.06930986416282653,,-0.01558385564938501,0.02197971416412803,
PMCH,,,0.08717724239315817,,,0.013553181238811189,,,,0.028545566601619738,,,,,,,,,0.10086290011937277,0.09468381377844656,,0.05983201271430685,,0.07859788630431414,0.0590814181154884,
COL9A1,0.0222802371438422,-0.042444791692087945,0.1785592874380241,0.009194311322852495,0.029392102639089663,0.039101999191736236,0.06396373291243249,0.2727028550258391,0.07242032462626423,0.026204602933975203,-0.003472431774223299,-0.0677996109113734,,-0.027831070837705158,0.05946677119445015,-0.07891940569396493,-0.01649394315890137,0.04887571973438905,0.043399610954116756,0.2703080542573667,0.008936060971678626,-0.040641032283607464,,0.05633307546903408,0.11914802356670413,1.7942091753863409e-06
GDF11,0.034921102375589236,0.04283630447312899,0.053556721129346084,-0.022300745576612605,0.08231735510850965,0.007609531106983958,-0.060606523986391866,0.27028332779654074,0.29334015059564056,0.0612109042451278,-0.015028233824314572,-0.01932658005135628,0.0812249868186186,0.0985545370509466,0.01947720297637875,0.03979285701601978,-0.015085417691578815,0.032434018821559996,0.0706444790727345,0.024852515928236518,0.0645213667405698,0.07282959548117723,-0.0009853885802718438,0.1808317867695879,0.06745751296333374,-0.044384569879700755
RAET1E,,,,,,,,,,,,,,,,,,,,,,,,0.002486935905836291,,
IL24,,,,,,,,,,,,,-0.03309722577565676,,,,,,-0.025085626389538856,0.0856420309141277,,,,,-0.07267906262559676,
SORBS1,-0.0005247182231643158,-0.044321090987507084,0.1049867497116587,-0.07083390810689584,0.06988127161898755,0.08659937713106776,-0.023772411497425285,-0.003257850623655202,0.011607080345807543,0.04491816080577083,-0.016476680494919637,0.02957839545179104,0.023562086287070235,0.0034622940680209833,-0.0029369509804901134,-0.029252182514085866,0.08884274107805823,0.035785190016441336,0.02528530625921561,0.0992320886858305,1.9467001428840472e-06,0.14158986246749306,-0.03616837185714056,-0.013674882673058263,0.047550235536677886,0.05588884119974664
DLL1,0.05447728527105947,-0.0004613872834982296,0.04836483005267873,0.010412922791284075,0.1769999778631129,0.08796389606924956,0.03458661283991673,0.11994586131994658,0.16706725774016506,-0.008144766924384267,-0.006483051807510705,0.04902810777842074,0.06212995084061086,0.04849451203450544,0.07323039639764299,0.07804853993888247,0.04809002163631641,0.08122526227481787,0.034362324243374195,0.19485750125211013,0.08576293386117333,-0.0873800234981975,0.03594174282238872,0.14178721923025805,0.05623106341737796,0.08443481820850832
TLN1,-0.05465819503878295,0.03291217742859325,0.2766415474740209,0.05732318200261268,0.008553521742061213,0.08038005649837963,0.06278000743449151,0.21443761645575724,0.3598901936985239,0.08691615362495357,0.03901516709184746,0.2721491216600985,0.10189118342476065,0.12602418572654864,0.07060874335728212,0.09489289215028018,-0.0772520494118986,0.024534201320230688,0.08248715139807691,-0.030346154727250173,0.14240763151537444,0.12310437088986059,0.10656622840171341,0.18765506872013077,0.1216754271210954,0.012529520209695161
COL2A1,-0.016168387213957962,-0.020145550191265797,0.06266782604586339,,,,0.0294169291667866,0.04944620367410817,0.002596416975284972,,,,,-0.011573690949761928,,,,,0.08673286105106458,0.03690486704322981,,0.05991418271508357,,0.0794550712831831,0.035192931800915914,
SHH,,,,,,-0.019167527193141243,0.04394680281925264,0.046353257831629927,0.0002086789812352796,0.035281260274328964,0.03337583633913428,,,-0.06053264999058434,0.05975025976282988,-0.01204758219752301,,,-0.02059741423113533,0.05710303786081173,0.03545080895574895,0.060458158992254776,,-0.0908357589691354,0.0747436063767336,
PON2,0.0112966584854107,-0.10846416640811507,0.035838940175264546,-0.0527863042580453,0.1627489809907459,0.08458100347531407,0.011976844839520832,0.026369002696405124,0.35052717729419913,0.03794052417290463,-0.01480868492261268,0.1358243039869759,0.18094560158421036,0.10152712355456439,0.16271753206147477,-0.06507287379230843,0.13167428152949287,-0.018504384832426685,0.12718256380477086,0.2123909973656155,0.034431352557559164,-0.07596175573392738,0.09009649957144218,-0.07037602106893477,-0.04980846658625902,0.005619140791822578
ICAM5,,-0.004665717427982912,-0.04186408251335443,0.0742276340191302,-0.005674067188490897,-0.005546373959516703,-0.016590132915223748,-0.03647092681605595,-0.11152634258063472,0.01858814877182824,-0.02548446497274931,-0.12144771718773795,-0.03491489669849242,-0.0763946035056781,,,,,-0.0015627016810852077,-0.024289940453119777,,0.015905879852766366,-0.05668934604276676,0.04874306961052961,0.008944404002144536,-0.009581059742080785
HPX,-0.0010181046379392114,0.007863784893267736,0.08107052034862434,,0.10731381877084964,0.01637251957197511,0.028521129861609686,0.0940183753947933,0.11625095109781516,0.03919804732006511,-0.029712929472579173,,0.06646227362216277,0.04777513891608306,0.05249901013295614,-0.049392113414124784,-0.02378201784030371,0.06614125315845343,0.07563471429662791,0.1277360093898423,0.07722197768836551,0.023136205035147926,,0.10750150994430954,0.012868130360418568,
SFRP2,,0.011779484841232516,0.01305244462891132,,,-0.015713522715548007,,-0.008203220221509886,-0.007239042091533552,0.037048959473852,-0.03442460577662164,0.1577691549611739,-0.009724543113699817,0.06464792375279446,0.13825153508253302,0.05426971907401908,,0.005640700847554352,0.12717587772565783,0.1507957358136333,-0.04012741642064009,0.16546450428309983,0.05597944272400496,0.19501511936419128,0.17632233837511277,0.10732843754975939
CFC1,,,,,,,,0.024253633015835656,,-0.010361972014718687,,-0.10289825624331614,,,,,,,,,,,,,0.04563823348130077,
CD70,,,0.06503257041929573,,,-0.10222539920067679,,,,-0.07508549105615721,,,0.07674105072934537,,,,0.09353639823839754,,0.10528707598896347,0.09113670046791501,,0.039231368242621495,,0.009631618082974334,0.02595260711870674,
HP,0.001501114297280073,-0.03421729782581041,0.05179576604677943,,0.1402971357181488,-0.014015143238201357,0.08133439174269452,,0.1640014759526458,0.013751976123281929,-0.03960055488096397,0.1176725226014777,,0.042488270429551785,-0.06375684090181805,-0.03241876066510179,-0.08396442391937284,0.19789998966614533,0.19266789710306026,0.14181716689307472,0.009460683300653288,0.07859092574006427,,0.025314005155383745,0.062455205496575496,
CXCL2,-0.011496173146599745,0.1278206924246183,-0.00744754316416939,-0.008368033016965813,-0.003267417273119829,-0.06871429630900015,0.006218793293302417,0.004505775863963859,0.1047313458140979,0.030967689386629086,-0.019948750846243944,0.1258204007912289,0.12174260287539626,0.02143328101984023,-0.0048367551605743775,0.04676882054554551,-0.017557927465528554,,0.022746628863995044,0.04888901887154438,0.05789353354397299,0.11304194252573642,0.01643013027794319,0.11842242082204563,0.08446283524430868,-0.05485116419754104
NPPB,,,0.004113894830181895,,-0.07341366546999918,-0.10570685366999243,,,,-0.01231642688956616,,,,0.055504670189486724,,,,,-0.004730551865604796,-0.01965357917043141,,0.09299975272990005,,-0.0856439572716752,,
CCK,-0.008825865369469771,0.06657592881171037,-0.1544759158360663,-0.050405023952847974,0.1270651505861461,-0.0026629456107656636,0.0003811563175413567,-0.26641738499636264,-0.4059987860199754,-0.0629510095223903,-0.060081845718295744,-0.37183046252497615,,-0.18135415818754372,0.07083666464690414,,,-0.002590988693735792,0.021779046672114062,0.08861029189451919,0.06469501307459627,-0.11400151505948333,-0.03767048551139325,0.03627970943098935,-0.044066369147992376,-0.16382191861544815
SEMA6A,-0.02679598262483549,-0.02331235676968654,-0.08648164915789006,0.03922290147031744,0.09757604540381534,0.09726865197149118,-0.009517088124306008,0.18938567115858954,0.2677843090771673,0.06580527383508433,0.010773240832259542,0.1860491391490698,0.15049159011179414,0.11778296120216006,0.038717679643139435,-0.1394548665700613,-0.13068832014524556,0.05536161050459328,0.07153780672409414,0.0696226070563626,0.05692892335790345,-0.06560610337059535,0.1402598361334493,-0.1263025657103977,0.09686128404314427,0.10287548659332522
IRAK4,0.06661621429702047,0.11161044757843216,0.15370535814730907,-0.0015882808811320496,0.07193198123422682,0.060057153527608945,-0.032382649450254736,0.1159717826153412,0.2513372224146325,0.018115447957733403,0.03236050900848805,0.1333934572995953,0.08059371806482515,0.08258804091421859,0.033051484579109815,0.17026511157647445,0.007043755934753823,0.11607575996337893,0.04948121022263792,0.07525800537651949,0.06826446578800525,0.05014234148459549,0.006051170968447162,0.12398009991068014,0.012030689114598214,0.02585870684741696
GSTP1,-0.017803965687608014,0.020900366488106746,-0.049185909487632296,0.01517908032077668,0.10775216446197158,-0.018105934694817263,-0.052734324021268104,0.18778011908136472,0.3649212825766503,0.02304898472815846,0.040616940587826465,0.2804867314212184,0.07182274914365522,0.13191630680279975,-0.058822442157446975,0.0033515347548465574,0.03945842697540747,0.0044728506393145115,0.04089100704494442,0.1376451811605367,-0.05164522848341445,-0.08840756943409338,0.048692676235179824,-0.0171755259990106,-0.01433403537716512,-0.025317537806222066
VCAM1,0.024155782704116096,0.08385859076854243,0.16034986045613098,0.042672985640945835,0.012737252340237261,0.05697378077951448,0.0409529555126636,0.1406370436552054,0.38201062942996306,0.011836189346829685,0.04964750595054382,0.13866302093482602,-0.07841474572409764,0.012371719266643662,0.09764231760661417,-0.01207741629687669,-0.01817448012868294,0.13857613650311532,0.10914381019790388,0.005424412042135779,0.04922157303055383,0.004305818084180334,-0.0021568202254200076,0.13649990486913746,-0.021707305234274974,-0.026536235361055968
NXPH3,0.01946056860569932,0.06085767011482351,0.04285634380243858,-0.016700013254457198,0.044450712548916686,-0.04564741704796348,-0.004312338587472038,0.12235584876026627,0.15646456049945456,0.015436292223368925,0.05441458392497476,-0.06509142785693942,0.025926309997576755,0.0015073682679806251,0.09296607600227826,0.03336312825749978,0.00619527809789345,0.07098001254888098,0.12738360353059866,0.06706587389324739,0.09509007452022777,0.03456997019210187,0.14527662927447524,0.10148673658761732,0.01771755501887834,0.011311101487245206
MTMR4,0.07403165745057805,0.07136896183874614,0.05087255455814467,0.0067495215175118915,0.12758428208591155,-0.018628146740398685,0.004206705808535033,0.08506790863625048,0.04929060622965381,0.060069415002874105,0.0027436111030293415,-0.07069135933747733,0.07065810287289619,0.03930712703883704,0.017040263123135772,-0.07190326360276836,-0.03114094285032063,0.10754642764592162,0.03916237068707655,0.0696883416414056,0.044696896916188104,0.04620398495147705,-0.03512934218009132,0.07605101681086844,0.09520892981408846,0.02644168538924343
LAMC2,,0.06256477988093964,-0.003279564700663332,,,-0.057202713842027055,,0.05361262162462669,,-0.02097090324527461,,,0.0528099038851342,,,,0.030375874532809172,,0.0704456072204412,-0.054802579584403974,0.00414579296201303,-0.030150901445463996,,0.07567961199967331,-0.08322697481906728,
IL10,-0.06277259523956498,0.015558549739672087,0.07504836947520589,-0.023958011713333432,0.051112482556116445,0.02716030817716004,0.03243805963415632,,0.06677674523047564,0.045375970832136646,,0.23874518582309634,0.12055787932720775,0.10701800053206612,0.08761891118609193,0.06732865191937004,0.036922092692531466,0.10194807786324872,0.04446097784397902,0.12547030489418665,0.056611621409174716,0.031928436240553644,,0.11070684897404359,0.0861543093527785,
SEMA4D,0.01804078864154129,0.04862648810027166,0.16294421309195345,-0.003736943915135312,0.1030607218682003,0.05091052012714142,-0.01998796178703402,0.03811483090146865,-0.11519386120869096,0.06939177762909016,-0.0036819457068917494,0.16738717937416359,0.09287994669837758,0.011317287402942978,-0.021155752916074504,0.05648358905318194,0.060693719579718475,-0.017864614870030226,0.08603951885085555,0.21569168679595227,0.008121399614157152,-0.15445017788692117,0.12150196099782795,0.16119185693370194,0.05324706397318573,0.10850110263004324
TRH,-0.0012111482355664218,-0.005859564960296837,0.13262264186933154,,-0.005296896806484421,-0.08844399381057479,0.053698054987605076,0.14712275905348537,0.09012092923591138,0.0012953500392936705,,-0.0047982597726726065,,0.12765454712732943,0.09203844926677479,0.017584677285561866,,,0.08871417395953433,0.15107605892481976,0.17745550119709994,0.05430804131079552,-0.003273439317621703,0.052434500876957765,0.11514456508366357,
SEMA6D,-0.0009680950469522691,-0.057894349747810665,-0.01868964007993523,0.02528906365089236,0.047168504900231126,-0.009579345774195358,0.00813653023355665,0.16674357977206028,0.1809768607108364,-0.016026302719826267,0.016488195933429733,-0.04596883498713383,0.010821378446772457,0.11556154698544208,-0.021371290395671278,-0.04705733468195667,-0.07819309706770036,0.013803334826108076,-0.04147457074944393,0.13576308133292098,0.00042100300247928526,-0.09269097201564633,0.17091679730984244,-0.1347536356942458,0.0345464358807356,0.12645485203785595
CEL,,,,,0.07987108593568462,,-0.04659159574582578,,,,,,,,,0.06232990311313812,-0.04775876720147591,0.059562031981162666,0.01378405672582623,0.049020599654239244,0.06194392491586069,-0.02154834606815077,,0.131271770766936,-0.023558056535813363,
PDCD1LG2,0.1542209842867336,-0.06809345632336766,0.04707347562059248,0.03594083261552061,-0.01187817891923139,0.04678117559697741,0.014837168566546452,0.047644577684123224,0.14708571783334518,0.03046563355355716,4.2480924851816346e-05,0.12557792395937875,0.09658652703741885,0.03589602576202896,0.042236999559079634,0.03571692121073473,0.04505338212832376,0.18242261956506736,0.14866474379883277,0.06922037534173667,0.08444400180584381,0.028314737639959005,,0.19391271292406478,0.061275949977091904,
SPINT1,0.013003294160473517,0.061406931462197306,0.10765924686665278,0.040948673688425294,0.1254499796816001,0.07622921345595814,-0.03152728305488686,0.05234641585018031,0.21943337034454086,0.014363659230778458,-0.0264341607114478,0.04267657348139645,-0.014942370255515184,-0.028345950130167837,0.06427495182217681,0.0956899310733843,0.09998618291422907,0.060064893901974746,0.06258534547315321,0.12705980325096455,0.07477345430514272,0.07115011152244047,,0.11869220742005136,0.0995645975770414,
CTHRC1,-0.05061983043312991,0.05364304140848471,0.2846686227652329,0.009431117057397345,-0.041794870587496626,0.06834305277212524,0.023344897591268805,0.2726402508682634,0.2703513518597674,0.03863324581451994,0.024446860236021092,0.06453826768914044,-0.09435922335245621,0.11437374232785882,0.09319221056430896,0.12528144521346962,0.13576914755032202,0.11078093476995671,0.19491746583458042,0.08937445604782954,0.10668885427002159,0.2505351022937859,,0.2873656725971623,0.21581927028580836,0.11175829006049855
PODXL,0.025954283829350923,-0.02513783495743164,0.36409928927308066,0.023006775646500815,0.16844669072100796,0.07744000170583397,0.018963174043392313,0.24413375598105622,0.43892103502979546,0.08612887344919402,0.07671562224390373,0.03433917699891596,0.08365681774940192,0.10311725866046595,0.25042017767241226,-0.019685606958788567,0.024364984013998472,0.1673416099663894,0.11054353466158202,0.17688293834039875,0.07583025582953576,0.13720712506599755,0.09295367085934338,0.11159422576803751,0.20739045668341616,-0.0606280265313156
JAM3,-0.02778641445504923,-0.030065100518661358,0.14274207255106078,-0.0003654237250484464,0.08251460711804277,0.07779755547517685,0.05035731447140119,0.13497822346636953,0.36454827151761804,-0.03439051225311111,0.04869609243806247,0.30505454551433503,0.12583326032858372,0.11315629643056421,0.02928788006367581,0.022803158797924168,-0.0052487282780942805,-0.11130995594968648,0.06182863856839212,0.10531392136907468,0.0011074029724565504,0.043860112785887,-0.04213622260031159,-0.012786157339619726,0.16243947315562904,0.13169585889480542
TGFB2,0.07371688080690679,-0.04373763229456352,0.26982225861604386,0.06537300502594559,0.07393537625190856,0.007710758269180392,0.0350098970728644,-0.05156264923246547,0.4593155502660672,-0.0020929165530094457,0.006760814228960183,0.05675894028966696,0.15144565165498391,0.06036769024756633,0.04551850593448764,-0.05879215268155199,-0.11985129736512971,0.09227395772863442,0.10384718700370214,0.1351386123815087,0.09106048905790486,-0.05443159012825643,0.09849041624258165,-0.10135270404685968,-0.051250717303411054,0.051497226593108715
COL18A1,-0.035953248191700045,0.04253191707542626,0.34928689103613675,-0.00039821278235629135,0.11586356193983023,0.12276401428706468,0.11326642859468294,0.2501235462838876,0.40333342845704734,0.053295538148162645,-0.006104616221876408,0.23326212445547034,0.20780800061470522,0.1472638000777784,0.11628130266368879,0.048241711963750884,0.10203751876203782,0.12080833719809884,0.18032782044544288,0.00042851187088229327,0.06599345077674826,0.3146771964139673,-0.02116327801994591,0.24097953623442991,0.24431019661858985,0.1401907448425668
NODAL,-0.024263470733498802,,0.07273917720990594,0.02005133246087626,,-0.04005048172303715,0.0023755867705533423,0.20489987264074178,0.2169261325181681,,,,,0.03530383363963314,0.1599659631277283,0.12720865933804898,0.13987585435191852,0.14780651227235195,0.057966065733850096,0.08189179170349771,0.010441884366675633,0.011904094885068328,,0.04914505662815471,0.012570926185228527,
INHBB,0.03972748746044174,-0.03172380628872216,-0.0019780793728418128,0.04110673202746873,0.09384902172498052,0.003880299637823449,0.06318216344038256,0.0631380009324487,0.19593381345302546,0.0012386409934107077,0.014402712419252105,0.04971849905930141,0.13780871858342417,0.15589360365529134,0.046387545495560026,0.06172913639404721,-0.009537380300722043,0.02340855265639314,0.10843738615053676,0.018109826495727517,0.01071006504501727,0.10345086862791499,0.08279498607627354,-0.030134163797099673,0.04296186209712821,0.005458403923492016
LCN1,,,0.06911201988239982,,,,,,0.05558920124397201,,,,,,0.05087020494761297,,,,0.1259490987683837,0.013071511462966371,,,,0.05186588552281433,0.08760637233830289,
ARF4,0.0313084189552733,-0.05406839732114157,0.16821273343088095,-0.002193170270460707,-0.1266241147660762,-0.09776041760805242,0.03612646825045122,0.17436899922421675,0.220708586203475,0.05699432120367718,-0.001683885231824906,0.09683893910214157,0.16729713468549842,0.10647035224743635,0.10716365379684191,0.05746331297116597,0.03319216175657507,0.08533021991023948,0.02036476226526238,0.10942038412376538,0.10038849610594001,0.028048722099820782,-0.0006011797447435693,0.03661221401184518,0.0004628260344631298,0.07970424605285192
CXCL14,0.01682228987677021,0.026937126632352284,0.06079182600651501,-0.018717324549224534,0.050191659004948486,-0.0678092396350685,-0.039440783576541474,-0.21913124192137232,-0.02487161355961761,0.03447152397159252,0.014311455277328085,-0.02735239225221061,-0.024778153005358555,-0.02796318908403834,0.1895612691599067,0.01231218159300171,0.058850568337593986,0.15258210473426304,0.05047139536968137,0.0016602555861391305,0.13480315907895832,0.06970984044066653,-0.1365085959650402,-0.13827778114560085,-0.06614859157219105,-0.01615720997523959
LIF,0.0730361504225117,0.06230129202036236,0.13407516722185614,-0.01622999966610887,-0.05301733735479422,-0.06446139377885801,0.017685400431615386,0.08103165151973518,0.15899598661636602,0.07826263935132095,0.021900360197427447,0.12585035043488782,0.10498792978776604,0.010848204905050523,0.08786596919237367,-0.08438950348448519,-0.07505710239968029,0.04222529562595183,0.07921273286623152,-0.10090876959990931,0.06635085959720802,0.08316912986146624,0.05213035725682689,-0.05170575262159504,0.055936456582656786,
IL17B,,0.017746251401322046,,,0.07032747138642205,,,,0.07026288693381957,,,,0.01586851571956968,,0.09090602344198712,0.08612729330680219,-0.0006509504839598633,,0.029586454188032938,0.028451439703669694,,0.02733044875336682,,0.0793783028062382,0.002021867832095528,
MMP1,,,0.06665600368573385,,-0.11651977464881662,,0.012217281281806746,,,,,,-0.18016561670054604,,0.10297091040207407,-0.023570443167654432,,,0.0039434009440074535,0.02849240011001796,,0.016742746589055394,,0.14304189840581275,0.07518839422830058,
MATN1,,0.013276203987141839,0.01367371707757656,,0.008050639954271846,,,0.026807496510721545,-0.013934322545210062,-0.034328317746420874,,,-0.006112356033570104,0.08087342207526298,,,-0.06315847565888003,,0.05637250957659434,0.03598223218204897,0.014046675237490385,0.010488576358122765,,-0.017206131261715198,0.03480007650592879,
ADAM28,-0.03501283320735884,0.08561934768307684,0.12341570744590079,0.060247204884040347,0.031721077289449416,0.07684421137067307,0.011530727959648992,0.1208847090142231,0.264937363467245,0.008257168892473236,0.07151634679309034,0.16617816058686796,0.05938150846222582,0.06269204862595526,0.07688328161852984,0.1307101439640175,0.10812049749193434,0.18306463011516097,0.07320844249982689,0.16504077389152993,0.0631956089206401,0.001471279784756805,0.1601731523086058,0.24857885295783946,0.059458307745987565,0.07537712342017355
TCN2,0.05055319566694056,0.03878030398380184,0.2688122324393625,0.008812338045387575,0.09598553500603131,0.05976316031659402,0.046981018733353454,0.1171724078302599,0.37323774891659967,0.05575858569930791,0.01370459458513183,0.1395515298385738,0.09095690960311599,0.007320991546761297,0.12186361482568056,0.013816827030402759,-0.002779024100397247,0.10327027786042645,0.2054707963177398,0.08622746722094847,0.1613902499620263,0.16550795683084624,0.05925964282800485,0.17412647469047204,0.08041379317033986,-0.105101876933803
THPO,,,-0.014630157249622655,,,-0.03941568942122986,,-0.007337448395882484,0.08867900546013609,0.03113457403314991,0.015473774581110732,-0.08793497213577511,,-0.05085951501350428,,-0.04018612481759153,0.060085028953706966,0.055267060990856896,,,,-0.0036320312695627974,,0.030086716991413274,0.0047577967747248606,
CUBN,-0.027197464101518007,0.02495458317379549,0.09601153908424638,0.0034051005714460544,0.032526090847474945,0.026291717123612647,0.030575069376674126,0.0901239087643264,0.1351710856676955,0.0237523282456585,-0.013705997843089025,-0.01767711601786743,0.07944046323469155,0.1161805546708318,0.051600640507575214,-0.003573257849178446,-0.06469760626665134,0.14423696431485003,0.08315541688226774,0.12004052906060853,0.0010222287213179583,0.13463015815878196,0.06894020487197301,0.11518816054683344,0.03913776223239256,
TIMP3,0.04356751136867787,-0.1327613625942595,-0.012033353413109881,-0.026582285464553386,-0.04302601115889891,-0.10239395719750108,-0.006343000545840236,0.03453017788450171,0.23855029457075488,-0.0026847302095153514,0.0523010290736842,-0.018693592379781382,-0.04575506774625644,0.048555505645195375,0.08365096736091662,-0.016811389744015484,0.002862071317055556,-0.07238818547948313,0.05755278955888608,-0.048681537693036216,0.009569032293272245,0.19030630589018596,0.004400791155484492,0.19710244034733293,0.16444663531721695,0.01894409896775679
PIGF,-0.026632307442901685,0.017836704753245742,-0.020265307442015372,0.0018472237532304472,0.06863873032541477,0.01610322569393688,0.03780380614531438,0.15133944601267865,0.20855903195911818,0.002265855880642787,-0.02674049728691909,0.09603631278927541,0.08104499289123007,0.07090398859676295,0.01570280674806975,-0.08983045633035341,0.08107078450439233,0.12388384334571713,0.0787607209468455,0.1330671352185567,0.026097969650246276,-0.06606034500790241,0.22943496826898066,0.03757916761824492,0.05383619491352983,0.028117854100521335
CRH,,,0.016071937223388934,0.0326215894762237,,-0.057274509440541375,-0.03469352376205736,3.103187448094977e-05,-0.08227875276374176,-0.01862611318483171,-0.008126890857987597,-0.06802520965878098,,0.010971932040395958,,,,,0.07640593122908368,0.07300415926539727,0.0800033202999632,0.002662433452865407,0.016024816881603832,0.016402777359722724,0.05451550371910913,0.027899503817463957
BDNF,,0.025108957785442403,0.1058757398146289,-0.04581007606834016,-0.04986286783090514,-0.0669165317258076,0.02773844534737013,-0.0615230875624194,-0.28871745034698565,0.026611603143370875,-0.04872596582678888,-0.01955714611122765,-0.026146388533465643,-0.032539667743166266,0.009294751913797097,0.03853285926702472,,,0.0793099538786086,0.030881394293195148,0.06523356591149136,0.05398657238488568,-0.040387426734090834,0.08178747357780003,0.04193967243017075,0.004864468179751901
CCL5,0.06202789691766908,0.1507700162302885,0.17793589339280366,0.010207701981897136,,0.046537506888878054,-0.0010858074465492035,0.0014745937811443375,0.14019266129685864,0.079418819519107,0.055265084674006065,0.1327245549418909,0.12603039304678992,0.010268758864873526,0.06655146607823786,0.015082590945213492,-0.021594341586669848,0.08432267333631999,0.10214625503256373,0.05809952092113635,0.0362889868896735,-0.011751319523507364,0.040948490137331546,0.2740510501308318,0.07761648089749595,
GAD1,0.03959568546651429,0.03465341351263205,0.018204384951582213,0.016576214485582063,0.0546793487879409,0.010929229138011006,-0.030627097364574626,-0.15448775552400487,-0.2529295338859219,-0.06623229982285056,0.009094233768022573,-0.30225412864024254,0.02474050821339874,-0.14216983352432483,-0.039889391968838485,-0.12585467118165872,0.0626664614930085,0.12641413851815733,-0.008529679323863788,0.15757504254700164,0.08445428628270096,0.02750275768457531,0.10352837178768319,0.030898123622839127,0.043662726869302906,-0.005656962975088224
COL14A1,-0.010452520867770394,-0.04515969029370377,0.17261130160560403,0.05749192302095125,0.13482376498077334,-0.023334970111548125,0.008165387516477766,0.06934838523789069,0.13881501415543815,0.06111945294444276,0.011531882135678389,0.060672537844368865,0.028889350196633707,0.0825463068740595,0.10025128099430397,0.024698351974443027,-0.09608669217136183,0.1668215723959933,0.02434951752461061,-0.05514666098038675,0.08098848533885229,0.15343814823168617,,0.2853425298112368,0.0212375605401979,
HLA-A,0.04201390580287893,-0.01048189346092271,0.21287194019229752,0.024453743392971315,0.014149760712269307,-0.10395128908079054,-0.0012975904706197308,0.09046611549184112,0.4928216637291074,0.1578536504452794,0.07475377819467725,0.39676405768265716,-0.05578513337377278,0.17517419312808463,0.039089016658654156,0.06619350759880356,0.06502101266593348,0.10120581734670082,0.0700188391055281,-0.11409868501477138,0.09969967950270742,0.1981315258525008,0.21634265271220576,0.18229780021572137,0.14246585959260188,0.055457352590689735
CD5L,0.0036615044378919795,,-0.004069525442044566,0.06980999516473972,,,,,,,,0.09904605060308429,,,,,,0.12708158483905732,,,,,,,,
FGF18,,,-0.027779637993326143,,-0.025080345730497385,-0.026120551030616546,0.012743356717350612,0.018177788172017168,,-0.0067302790506961465,,,-0.03372289230769785,,,,,,0.07360994959777273,0.01753014646491543,,0.027819021249782295,,0.06027826645952319,-0.00015122930520939903,
ADM,-0.05989902736192292,-0.01707699478642661,-0.06486834113567735,-0.09451931721809494,-0.125283209774672,-0.12800720403073435,-0.01993146720759932,0.18012085853903406,0.24986867362892112,-0.0066196029098013805,0.04223658191657348,0.0653493958085006,-0.10639922269862462,0.085979822618226,0.09478560644621396,0.0636664615032667,0.01894578851551477,0.048446147002934405,-0.14134148060708732,-0.23109553802966765,0.06461866959960044,0.047803685177787755,-0.026664379277361004,0.024479062536079246,-0.05662675296630008,-0.026227655804073623
CCL15,,,0.15735478141841389,,,,,,,,0.06609007062741055,,,,-0.004255002992769497,,,,,,,,,0.031231621805243474,,
GNAI2,0.03474226629620531,0.07343907166698513,0.2706084744163861,-0.06537640964240342,0.07288322936832003,0.09814018144868666,0.06993283846271006,0.16502829959672902,0.4182435771630325,0.08066961391216455,0.0640444134901586,0.310768047879882,-0.05057099906623743,0.1616291197624566,0.04488334645419793,-0.04727332279374308,-0.07771685747389936,0.09696526497571516,0.014503416769233838,-0.07524825795813862,0.054018162610565135,0.1619997351830086,0.06392957227691808,0.1348694133452094,0.08954962827346868,0.0008881917193061892
HDC,,,,,,,,,0.17923629704648375,,0.0008698272023794408,,,,,,-0.06503662011013822,,,,,,,0.03860926345211898,0.01788431466911683,
COL11A1,-0.006253036451590728,,0.13377878333457555,-0.02974612980437051,-0.03690919770663224,0.008002198102928047,-0.013382833530260015,0.2982582947855693,-0.05542975479146212,0.04479623221449762,-0.04267079210960734,-0.04755440231555931,-0.03748171105098515,0.08260361109743938,0.09675158093620857,-0.06996321246874469,,0.12412780872149669,0.009029236772753583,0.064963163490446,-0.01761690123324073,0.1789112050476845,,0.0697398604714797,0.05084414011254714,-0.07368687241724012
NUCB2,0.021460499096505412,0.09339812214688353,-0.005317447197499856,-0.059986890074055776,0.060836508538356315,-0.05822469433675384,0.04977125655894493,0.01645880807569746,0.2089599662095977,0.03965208234833279,-0.023240607408106025,-0.025859311633783008,0.014815990175812933,0.016037076506369624,0.028782629171921398,0.02226547044332653,0.08796652022417278,0.10456964140936828,-0.006632322991252006,-0.02035383864182312,0.03204860833687778,0.012355052341616076,0.11969007747199507,0.08874057528018293,0.025760752630256286,0.03762638651859441
FGF16,,,,,,,,,,,,,,,,,,,,,,,,,0.026418558411968534,
CXCL1,,0.051889429348064314,-0.009227719278688266,-0.005085712166864735,-0.03386270257032069,-0.04019835191235618,0.018010299514324975,,0.08243883511217136,0.028746825024541962,-0.04245034072394732,0.12513909147245936,0.18139261397794232,0.04475463788637279,0.12331783434437656,-0.0019437026284342663,0.08549865153318491,,0.016415164855535538,-0.015161706219661385,0.03909610605629111,0.026871601148132217,0.08969220314464035,0.14431226641312872,0.07280662395636615,0.022004846166512215
VCAN,-0.026205735408441486,0.14044655972964443,-0.07200668074618045,0.023706985546993967,0.09679927968265083,0.056661733799506085,0.05976712855930495,0.3072933048691913,0.3447831222897052,0.09646251688556297,-0.034651501982448076,0.10188159287395746,0.15560528074473923,0.16927252328693942,-0.07453838637581893,-0.03045656382370281,-0.18825186718582818,-0.10323859589691907,-0.06591798219575175,0.056127734617904934,-0.042574510518164514,0.0830595172361991,0.10914656460634509,0.08264146999256097,0.09713879664198188,0.05659437601490888
MMP7,,-0.00012111743580732062,0.16427126790976332,,,-0.03567152671094875,,0.006224150614169634,-0.01907940801021685,0.003736888559465146,-0.007717582570639522,0.03308806088464438,-0.024060825925844923,0.060288871136414214,0.07945806100973611,-0.05419946812457172,,,0.0873654258968243,0.061619005272887745,,0.06174317497996401,,0.07726922276475924,0.06311156277886025,
PTPN6,0.01983227925507189,0.16454101874170304,0.23224380463131578,-0.041263199403656886,0.12490250583579883,0.05296733460919045,0.05444304429413122,0.08460590070698935,0.28895887717567187,0.1197974877866613,0.026694233374226196,0.13597227300942297,0.13605481928461996,0.14992176726328443,0.07470080433194588,-0.0938027318638076,0.13352952767831422,0.1349225945245107,0.08743061513154494,0.13671941468769938,0.07470515015455524,0.14973535813187663,-0.04932046098670774,0.22994181678475265,0.142377836785511,-0.00799486755896533
PTGS2,0.050696830969063376,0.06213499753354668,0.03953338453604325,0.028376435148790104,-0.11693477414858772,-0.08656119670630945,0.021816338901902908,0.06564702063905906,-0.2496955025820391,-0.02555545737327777,0.07439242050098956,0.07965482331100081,0.046637990397276056,0.015766692373459602,0.03481295455604138,0.03182350432642331,0.05967614367574425,-0.0973776261750756,-0.028892360313193664,-0.11488910563373123,0.04015016412742574,0.09604400258777819,-0.047334236179551306,0.01908841145343515,-0.02053120100606623,-0.05628772899083124
XCL1,-0.08422568482179761,,0.03254697604732257,,,-0.020436190756546634,0.01627554771562784,,,0.0013340700203706784,,0.03510899241536069,0.05553394418867347,,,,,,,,,,,,0.06742184924918443,
CD58,0.06362247588383951,0.06422263973388057,0.1317484368489184,0.06936171698810588,0.10055983791518056,-0.0006881860265788032,0.037629442620047096,0.1164770335852493,0.36185296579243637,0.06437443220249593,-0.01607729916928105,0.11121267455897642,0.2083773739919809,0.11194322586675404,8.64318541310271e-06,0.08742209378110763,0.00387784269410813,0.12459647917751356,0.11662094337914616,0.11614941873701827,0.07489534697385063,0.08014226900588392,0.01370138218054824,0.1006945258082455,0.07622538423368726,0.03076689841650823
TNFSF14,0.031137530312087398,0.000376183818723474,0.016854030807014905,0.06139471477490539,0.07720074378267094,0.057113355389729135,0.0036121291217650997,,0.1474130426237779,0.02741628500524755,0.011868858945037624,0.14245699701093395,,,-0.03809899041437361,0.12321776867639231,,0.21871996956955722,0.08774685238278483,0.030615044248843266,0.07087206176464302,-0.014257571622264209,-0.02604714202067434,0.029138656880262927,0.014084289959155845,0.05618507603953367
CNTN4,,0.09371547782510158,0.06232583455293791,-0.02792997487491777,-0.0011479175470709582,0.008738703561127884,-0.04087912641307307,-0.07235729323222793,-0.1932878676310098,0.030134189446767302,-0.016011778578826297,-0.2661493164823137,,-0.08390106180351903,0.052845215154661236,,,0.026239501432546414,0.0035589506802582204,0.02299749957461657,-0.013139519396530948,0.05981924103727402,0.05276662124728539,0.060911366531083456,0.0289118077067641,-0.08594535334935083
NTF4,,,,,,-0.03017052854502777,,,,,,,,,,,,,,,,,,,,
INSL3,,,0.07624579081794507,,,-0.028620025185652195,,,,-0.018964949074842776,,,,,,,,,0.05938532339011357,0.02594835201612467,,0.07768777987657431,,0.09101549365952269,,
BTLA,,,,,,-0.009376330536253022,0.048926797190109464,,,,-0.04582679797256498,,,,,,,0.05364295865933681,,,,,,0.04657423020395202,,
MFNG,0.04567793234542088,0.10609609624704575,0.2576047272648061,0.0287574987271511,0.10853727963690893,-0.0024635013460863617,0.02478886218100541,0.17348677621891773,0.2533896349440802,0.07234608127968858,0.0697197442563993,0.09746839011036484,0.12451912611061995,0.080251813614173,0.02201842610848706,-0.009948662414450367,0.10956970068587309,0.021766090836305894,0.1630077760527476,0.19026757125239346,0.005739624830941258,0.0886495931359329,0.02811397967128719,0.12429184525739694,0.14613744446933039,-0.06354436996065353
ICAM1,-0.03683190932090508,0.040267650453307886,0.053528777767681106,0.03447460014098268,-0.08687891850619082,-0.03505075932766571,0.06800134456000805,0.08383220839312173,0.3306308058974921,0.07101466054600276,0.032243015035101893,0.15075890215973137,-0.0029387191552977675,0.03850347630199706,0.19679202113218314,-0.07882815901326463,0.11589245350494168,0.07863003255472915,0.07738923348291146,-0.03190545655731188,0.06801338846226283,0.08658457404364064,-0.08852580846369003,0.0562598258824678,0.016948978431563243,0.0987494282451517
PROS1,-0.09275533725042885,-0.02889993746236457,0.2074308467920198,0.055022970339481676,-0.002168008280184885,-0.034478706940101314,-0.009269240051906703,0.14787475110920395,0.39421489629508466,0.05395495344875801,0.012726970026969358,0.08526995795958725,0.1474065716003755,0.037467498989659793,0.11130153211141382,-0.018589423868175744,0.03724259058597302,0.06771201640287364,0.0007193897486898976,-0.0015534460130788427,0.05930974197116853,0.1500471647470662,0.060221213587196294,-0.012052548468346642,0.06012603198770886,-0.02502188631080301
CLCF1,0.044622371576110514,0.05052772986794496,0.16841441286079367,0.055622522429780094,0.01739628491890885,-0.11203085689623814,0.03390185043685746,0.11619553293703111,0.11543590208789406,0.07932500045069428,-0.01724729497413515,0.16338491552289597,0.06356755821131833,0.02742585537551616,0.03154760853045073,-0.0018713330645052653,0.04812770676444592,0.14674821001059132,0.06235338813069859,0.06319861117524983,0.06884371262229964,0.05449485847642524,-0.027804408936312138,-0.057265314862170236,0.1020636583972477,
PSAP,0.06691415702231066,0.054095724846862474,0.31352355729161985,0.044803337420065176,0.15723420997866336,-0.09149592901233904,0.035976100524129584,-0.2297507290830067,-0.2017906358856634,0.099663363567309,0.02402211928996571,0.23040477124639094,0.004228262091070683,-0.04540108149958055,0.17035127941958703,0.12733082900787263,0.018092662477587045,0.20644118118463056,0.06798231427051434,0.029644328046114627,-0.0022722598820539737,0.16823006024733858,0.05114947834323293,0.29109047337122024,0.19481945546630647,0.1503507801898273
EFEMP1,0.04452203544326001,-0.1267848988846891,0.2652159247115155,0.039397055885978256,0.0358822075825005,-0.05353555496005992,0.0011453450693435963,0.12021259618207213,0.34543352292432883,0.11581930128268494,0.010777305623646035,0.31043377467697525,-0.004084173873520512,0.1394929231633974,0.14793711332688853,0.007804732684001486,-0.03632548430809088,0.10198205144201243,0.049770336446820176,0.14707786142451032,0.07624101782539132,0.08546223272505489,0.14576602010963274,-0.04348129885503975,0.04038929855262196,0.0567763752182857
C1QTNF1,-0.014384579724213403,-0.08482947590077942,0.09346277853101599,0.013404809708679714,0.07080733195836557,0.005936779811269143,0.05163087835465945,0.11838733053417048,0.27410990538826663,-0.006350511901868359,0.01778412724832368,0.06594695573607831,-0.01632475690096804,0.014903129728360186,0.08802879596406354,0.13129661882774993,-0.02912870209985526,0.07375323196000744,0.045437469996288726,-0.05233565270905436,0.0780978242186916,0.14868992051017324,0.11704364715618848,-0.14461380891068215,0.08222860475299405,-0.09541795611780263
ALB,0.09476135668109689,0.015131104278682207,0.05396643728322141,0.004837258375744676,,-0.04992735177703011,0.009478282893747334,0.010151755245820106,-0.053044955400879196,-0.004331915078245772,0.0169868392948366,0.07170578057566585,0.01649654595566164,0.07040267561997288,0.0524407015395546,0.00010053134280301132,-0.017236711014874964,0.05580186680319196,0.07210039955147643,0.07562752403136931,0.02891071774968003,-0.015561228376771333,-0.0776114921350594,0.022700457177573,-0.030251127564609844,0.030857049590819235
CCL13,,,,,,,,,,,,,0.027788098425495913,,,,,,0.013032972892886477,,,-0.052598412390299366,,,,
EFNA3,-0.03652172571276252,0.008867306118955058,-0.034337915844763076,-0.040956882551747335,0.012776446134246206,-0.0917788500111609,0.004030041241464464,-0.10786132017074923,-0.28577602265624696,-0.06457055894319924,0.0021691457138787724,-0.2329225848857104,0.0064041080448201315,-0.02468643099071048,-0.0542743155609586,-0.04139872712295019,0.07669631920590582,0.08821360269604935,0.01580372448377646,0.025246879691368806,0.05050658414292154,-0.0010062152365617003,0.0073391058851900596,0.044203284685345325,0.0669949548139183,-0.079762233047074
DRAXIN,-0.019537300276446838,0.08197931272581366,0.012502198323798237,0.05216166916948668,-0.04057347536582195,0.03671320212579959,0.018146585938077907,0.19605592352072743,0.2970546330369811,0.010683084256578441,0.029203407333255042,-0.0016967669729696232,0.12454381977487483,0.15149402553425934,0.07338620184657141,0.0044885290793918835,0.05493786929601009,0.07025301640411497,-0.04818994024212331,-0.07146523984571436,0.09709726562949884,-0.027965891561294153,-0.004747815528405878,0.16244328381637269,0.05250179485023356,0.05508661781970482
RAET1L,,,0.04761225459382549,,,,,,,,0.007318994128402459,,,,,,,,,0.005674017898485165,,-0.00899406087403488,,,,
NPTX2,0.02062850723368177,-0.021198030676484497,-0.017174855049025863,0.01894076856983499,0.15022408867599313,-0.0711247768842874,-0.03402419997617699,-0.2566375967588127,-0.4151008934240276,-0.07245493340114212,0.004361939594709757,0.16705647405921242,0.11536717182358447,0.009259096664915133,0.01183283671874542,0.04366484243812059,,0.08328154566805913,0.10159838056387503,0.206756461698362,0.052289559331257875,0.10988138663263906,-0.04469938738622691,0.13889961964450162,0.0299400079953183,0.038858490377559174
FGF11,0.03892228471736464,-0.09565487462489775,0.029909770713967034,0.01186057355105136,0.016475882082078237,-0.04291386848310404,0.0619310210532802,0.17835482542601422,0.3281675721084536,0.02389931367309295,0.00663810174466515,-0.041895635944348635,0.006555358583117398,0.06679486806187508,-0.02793086349846667,0.03185134076027538,-0.07068124032918895,0.04889157157184034,-0.04572193370369539,-0.006901797804568783,-3.0838803743399925e-05,0.021736505914876848,0.08372030491283355,-0.006534724820795414,-0.010663776221458077,0.04832123982542385
CD59,-0.013486254433853224,-0.06452939687192917,0.26276490469686337,0.00921282040951093,0.12374257363647478,0.05817185235909815,-0.0018192616825986605,-0.19285319067845572,-0.17660478830352594,0.09100422685539225,-0.049833536913660166,0.12384144916331528,0.0781268231104296,-0.050497205913843365,0.19332920155762356,0.06442507882499765,0.12744094759865796,0.02371526362415735,0.1858034948595401,0.07304179795243954,0.03193362802991393,0.19948959269118371,0.07472355326466826,0.19049185745433608,0.20708899648055895,0.051710496294999284
COL9A2,0.050557934624549945,-0.06103857620798311,0.06636996716712923,0.006274939700084795,0.17045044595438433,0.0016079006269476008,0.08553501627351075,0.19483397719810508,0.14781719270284682,0.036602698662748956,-0.0003145438694347864,0.12022084426524471,0.12499890156422425,0.06228522356384102,0.0020638478668440503,-0.03733165349918562,0.11228658457549327,0.07388108240557086,0.05316569481391701,0.19456830881722545,-0.008475860853802756,-0.13218521980107836,0.09592195532185949,0.20503986799682192,0.09876395353747143,-0.02154053336319163
DLL3,0.03960877515183442,0.08564074723503638,-0.09013949944383513,-0.03453998049435075,0.1216529817377052,0.14319024563827795,0.03324296276648185,0.19148767271714062,0.18164432495894517,0.005261677402064653,0.06276714308783704,-0.1902251200285137,0.09607802885844201,0.013336667025259598,-0.11470135063974203,-0.052459023322096156,0.139199261926348,-0.012874693351018093,0.08511798442084448,0.161121816895391,-0.07725431470927663,-0.15450105418756452,0.06657174258186381,-0.040526144480560876,0.07161169593314143,0.13019806613597806
FGF5,,,,,,,,,-0.07430082284665594,,,-0.04762810006262822,-0.060678652367130805,,,,,,,,,,,0.07528043855379452,0.019559497307092565,
LIN7C,0.0600604292321299,-0.040550774373592155,-0.0011982213901619453,0.013851827781732485,0.0978014185196454,0.03530829447161002,-0.01688995742560739,-0.005320173082432858,0.15090890701676204,-0.014447857612014663,0.03315691528824779,-0.13644102932139246,0.06878973968342161,0.044449903330066626,0.047443536201124126,-0.028083081603359775,-0.05006866191650597,0.0286536465110652,-2.9520251692348805e-05,0.01567072423984089,0.08631818892062099,-0.11926161980756883,0.021977487479967375,0.032518096786285526,0.013820174018646268,0.022449797952041158
GDF7,0.01747613755781957,-0.03330440447674476,-0.05409080991232439,0.0556487891271582,,0.019933091020600733,,0.04061542304930225,0.06330774202218155,0.013807784442282714,-0.02938247514970089,-0.13562781998991844,,,,,,-0.026350227634380247,,0.055491227630897776,-0.028756351249856642,0.014388236663385666,,0.0571371060010215,0.023658596048012247,
PSPN,0.043641446396275686,0.054327974351314735,0.020583167407167636,0.03565180557161444,-0.02008990383479949,-0.06199151080721193,0.014909504948220024,0.04538271150627732,0.05055736583208547,-0.011239619469715745,0.0356349838823829,0.03895218598833454,0.04839549988749018,-0.018363387245640687,0.053339269584382794,0.06344477500206953,0.035682512849401715,0.1414011400251432,0.049839490724325815,0.09682947434418264,0.03115798789383109,0.008020422542322025,0.028297362947159798,0.10273309382679166,0.02676470170066879,0.044257742259614576
ANGPT1,-0.0002872417142276824,0.033109150160483346,0.1686483300574655,0.0311402422790198,0.0026135511370762197,0.01950510103019388,0.021427449149712487,0.00443786685508677,0.251120302143421,0.026555716690773137,0.04139359400940242,0.20463961949752424,0.09564367217935607,0.01931733469479458,0.07247266283548127,0.11487335178754185,-0.02057835925705691,0.032665210287098165,0.03489763877842417,0.07472197522521247,0.02523055945361134,0.05440452140731731,0.10643841522949907,0.12784839891109573,0.07654483291205955,0.0055968175610744
PNOC,-0.02578520834800331,0.058476542102056155,0.017378055451341513,0.019849363174700204,0.16490549991198789,-0.017484800990185775,-0.032580086627678646,-0.16537610849633214,-0.3010637769154933,-0.060749896307365624,0.046632332781093605,-0.20578675317831874,-0.0012257163486674861,-0.07870180978204043,,,,,,0.026345913115994535,,-0.025856364800343302,0.09301563576992238,0.07945677123307927,0.034561085757476635,0.006822282732066212
L1CAM,0.06356185798370984,-0.014077490249168875,-0.0741495685043662,0.020791126565618767,-0.01360517272627883,0.037683813904939675,0.019833728938395787,-0.08518812834909284,-0.22506110426054657,-0.028527575018290743,-0.002554510248172879,-0.1699438206644797,0.009091687071553148,-0.15787624939371384,-0.0950675725052857,0.06309993086213551,0.0001110142845737886,0.09241062146338033,0.007249588440472723,-0.07762370271801154,0.07215328095797661,0.005846355651689397,-0.10474741577313301,-0.05811415604000685,0.007776980868901511,-0.09295044976441724
APOA1,0.047689359681019235,0.07278726718563704,-0.05277501179374037,0.0031176443256774006,0.030412735128581125,0.002293045523622221,-0.06520795839624849,0.1015550164445304,0.13755521739894663,-0.03406411094381178,-0.029511832171205975,-0.05384290425824722,0.01144938722706231,0.11128461174436421,0.011537543571020855,-0.004739766453355553,0.11139123586644017,0.042873617953201375,0.029583595069924876,0.11507991760995868,0.037834510611965994,0.017784108157695037,,0.07675680374541378,0.0670842174323422,0.04741445258729945
PSEN1,0.04037529428825271,0.04481965907861644,0.09153099053536173,-0.022424919161589636,-0.013941230224570306,0.08994770636166025,-0.013645379743654009,0.032964929984367,0.07542115942512485,0.039194603995500926,0.02680860292314625,0.19777040679507155,0.0670034177593404,0.06692254709400089,0.07104613716150823,-0.05690607409098107,-0.023167152100504174,-0.14304707421382737,0.06712545972722596,0.10812033026050498,0.05710506528242425,0.04565939006595768,0.06560307153262009,0.09282715776240205,0.04483052548000958,0.10854076662221859
CALM2,-0.005506259531488317,-0.047444944288549326,-0.03302754870755705,0.03060718969181021,0.06730969899230717,0.060286190563061955,-0.022157546370956717,-0.24620555850384115,-0.5021342226176915,-0.027563910630479572,-0.058875300413760205,-0.3734033050561514,0.15373418044320822,-0.14861678511730983,0.0006781295326853356,-0.05164371065786804,-0.12946040603658104,-0.11823100964042009,0.06430395649576223,0.14579925795319806,-0.09100659897725392,-0.05781811275967425,0.06854343077777825,-0.18048401237464523,-0.08385395401232718,-0.08633002095761097
CLEC2B,-0.022542473879890508,0.13497677956910406,0.19867273876883854,-0.019874365266622607,-0.10215819635722138,0.001681116284946662,-0.009291296352076579,0.08963656226410996,0.37719070526684534,0.0016846795136959373,0.02215922157241672,0.14928291941570457,0.025138818494338192,0.04322856632068754,0.09374303375871332,0.11334573477813188,0.03435338524886642,0.04645409025334758,0.06952268357740961,-0.06877020724836565,0.07893112190568254,0.1761693569321397,-0.009461665362112922,0.23822093824984986,0.0971802345232955,0.09771192622417339
NTNG1,-0.0542085257261519,0.005810606468865229,0.07229886780790841,0.029015335668462212,,0.021963733312531344,-0.017861828560889467,0.027798680653245218,0.08333493834592044,0.04433175476962137,-0.036803342809436417,-0.021610968136532797,0.06773422028973076,-0.06886277527471978,-0.029740996286380966,0.02505309351903858,-0.06633218697823152,-0.045948256928562775,0.08030468772435914,0.1802938917568314,0.03783000809857836,0.07010420222647211,-0.013042531804676998,0.03736993306029979,0.048562998883404956,-0.04506512317084885
LRIG1,-0.002829717847594172,-0.1024748159143083,0.012307203002465876,-0.02842442315533883,0.16202165302579852,0.09475478211109552,0.03600779281701326,0.07177067996196965,0.24615776072803358,-0.017741857629122202,0.05710297711771686,0.10197842353048589,-0.08551908549561386,0.07578860028970051,0.05534893185930149,-0.05755888843748714,-0.002111908269198027,0.07413726881408104,0.07237508074514033,0.19703971349386937,0.06910344004056027,-0.1339561218005663,0.06804325178412655,-0.1991955316950119,-0.09616884576133812,-0.009667473406072423
CPAMD8,0.046387928711178646,,0.05872157686143498,,,-0.05280673431635609,0.015513091108585113,-0.07777382701675009,0.021503163292689906,-0.051698816420198045,-0.013652909317071554,0.03829007598024587,,-0.027924276794167195,0.06700464620013429,,0.1155306249156337,0.052519993688498655,,0.03416177109624759,-0.00010034564329571329,,-0.014514799944203538,0.07595280909454691,0.040351717635107254,0.01984574866196203
GHRL,0.020909359592669558,,0.09010320751320113,-0.019478469288491996,,0.004635878441589815,0.0335422473893637,0.04257738869077961,0.025662743066054112,-0.03361827864673393,-0.027407744735552294,0.051961068537761335,,0.060313802678428084,0.01864289768334499,-0.14535063529848946,-0.035567322799297696,0.172986085404509,,,0.032994986404571096,-0.01460020232398215,,0.06334822024023706,0.08026040960503082,
NPY,0.08523765356753486,0.03138679343973438,0.010289151415828946,-0.011749449825631673,0.02987918443395075,0.02472605996663784,0.03251578844670034,-0.1742700207259538,-0.20618207747668207,-0.013236038421655999,0.05543521666088497,0.01901136865249261,,0.011663560149489298,-0.09894017402223108,0.09965140031030739,,-0.024371991414495725,0.033545908467909974,0.00622791388834844,0.012434048447010269,-0.04190609036134791,0.04569812910433051,0.0024019009480560813,0.03687854030638817,-0.020342978197935308
MMP2,-0.011140122650320515,0.10941043483010719,0.26599564848060947,-0.010343551334868884,0.11100322450603345,0.15347366246098545,-0.00885696588388337,0.17608311712711933,0.36704054978235706,0.06754854739789833,0.04061250792488108,0.12444933508277235,-0.1536929783565628,0.20260057356795194,0.12007099042182622,-0.0010233271920135675,0.12243126585227734,0.08933985379577566,0.17071543890694874,0.07432529044672728,0.08072219401951129,0.12087503474746233,0.05071557371729821,0.27019974343692943,0.19427652703355464,0.01361601929979629
LHB,,,,,,0.04608290716326904,,,,,,,,,,,,,,,,,,,,
PPY,,,0.16509785407708394,,,-0.03330311797820502,,,,0.04544568200017671,,,-0.024017251221417967,,,,,,0.037436231244714506,-0.014929402079268132,,0.029614192274754415,,0.09494927606185566,0.024230147902749428,
ALKAL2,0.0509090752879432,0.06357310613355859,0.05102434357554116,-0.009567799346219095,,0.006696353351567178,,0.052417553816854624,0.06617285456721685,-0.043891873363098084,0.010058017042057,0.09001990103497298,-0.016583093035837024,0.06688355120368702,-0.0439079457593451,0.07139599297809693,,0.057251837421513886,0.08579037287582347,0.04167867488580093,0.018646154266913087,0.04704031163783549,,-0.03940310947328878,-0.10697985063711206,-0.07473267499327707
CSF1,0.08182317468716041,-0.059100896935529904,0.20892126827160762,0.018730299332271293,0.039684900229569234,0.06439173475627742,0.0373125478641138,0.1487510913886874,0.2868563347267177,0.11201243773588719,0.06673862230232841,0.1744696791127003,0.1358517752235593,0.1324650086708603,0.052909816925459596,0.07087258615607774,0.044811035641846846,0.04800789040782628,0.07763275190885975,0.06914998874676027,0.06743681075089938,0.11558363258836936,-0.044683331808959316,0.02411963017883943,0.07532936058476365,0.030064907357106326
SEMA4C,0.015533517316073294,-0.029103805782207882,0.16120025702688684,0.0151714195436907,0.06634152583191771,0.040856558044526814,0.05097529234244223,0.1534878011716683,0.1054113561851608,0.0203119641936316,-0.010110861378880143,0.024396795061600744,0.07635351839968797,0.062048239749665904,0.10505543579935774,0.10632961296069934,-0.04303765214575868,0.10792970960653092,0.11336628789990104,0.16576858820864535,0.06483643460225072,0.06822788483459859,-0.015317745908867628,0.16038266551763847,0.01339492863679695,0.0011022199269031898
BMP8A,,,,,,,,,,,,,,,,,,,,,,,,0.03358749233494398,,
ICAM2,0.06658847670990536,0.021923854686665092,0.15453007628495039,0.00804790999280192,0.0430620336497619,0.02934915862092507,0.08323758458304695,0.031174173997872427,0.21871599588477345,-0.005600735398616461,0.07405658953146146,0.05234697782572204,0.14512315337887471,0.07375349237808805,0.07532637902399662,0.0014233201771139154,0.188573489772041,0.0659932185321134,0.12828313325860308,0.15023914449734493,0.08576017227700529,0.0616139737500754,0.08749098510683363,0.2499567167589483,0.11311592616667518,-0.000922634287650961
SYTL3,0.0026650875816715204,0.14879991361816877,0.0018154051668490846,0.03792474587401767,0.12644547045760954,-0.018470272104732597,0.032138803284194384,0.045415181475805075,0.2529336284980548,0.055511947569097095,-0.01500907329590111,0.08243388040455236,-0.05115899625342767,0.06197801657131429,0.03094150774356245,0.05844545346855517,-0.030830767954506295,0.1415488713753229,0.052171059071826856,0.12500610697172346,0.0914066988948046,0.02068510515479604,-0.05060833710599513,0.1967053562257815,0.09626755940920081,
IL1A,0.0012350756159460639,-0.025326523381182457,0.08714295987219407,0.05790063682385392,-0.038883550423918625,0.008790407127524068,0.04339814114100447,0.0008758010400900513,0.15627776860289802,0.07079730832164284,-0.012924893802239119,0.18424963279478343,,0.018197238633749373,0.10329503267251203,0.11320719142472103,0.1679062623636797,0.07332751683369794,-0.029898484811522782,-0.018834274351608157,0.04210736033124709,-0.0045530282311740415,-0.03787640548025602,0.010486105301801508,-0.02068420154679399,-0.007118118147534082
HLA-G,,0.07194529179141791,-0.044786713003402326,,,-0.025258853423391632,,0.04224337297529965,,,,,,,,0.01005598733265575,-0.042125473470414045,,-0.0233516934887482,0.03415494143668611,,0.023546767087753207,,,,
PGF,0.006370305721281713,-0.011006379078835286,0.26214867853739326,0.04902018474596611,0.01063067362651841,0.08022282732888891,0.009041606285020511,0.12407335289155152,0.3444326888076841,0.04636130721151055,0.0673185925980941,0.10327842750283811,0.13252718053535176,0.0803833360635023,0.15517716504296508,0.02181427117136023,0.10127363776687229,0.14275677421150382,0.18025151661827313,0.15281957328303575,0.05766205722354109,0.15346015611060407,0.03513579313740267,0.2234630498377236,0.11293575101744675,-0.0010206821004198534
LGALS8,0.05846368967224803,0.04165826846283975,0.013048168618999411,-0.005887286721342265,0.07788876215157108,-0.012082287283619384,-0.008634299295427994,0.013068953104949523,0.12310056979971888,-0.005405345318107062,0.029495478038943188,-0.0990053331497964,-0.030492934033186658,0.009373386423352122,-0.0077521688671048855,-0.027246068920275614,-0.00041301658965178664,0.0457058219940427,0.02274976883189605,0.022388715119983613,0.022934847087203947,0.05603656357714857,0.03594273712828695,0.07027310703014002,0.05812836243803006,-0.01136579607727506
DKK3,-0.023868339785827402,-0.049375385980978195,-0.02767505695144447,-0.011775487882538313,0.09577904746854492,-0.024676272661787513,-0.0298110460175228,-0.2854181977965857,-0.3734575222405442,-0.011923848183120915,-0.034948548542132876,-0.3501303190029186,0.060889483902240145,-0.12842855465335454,0.09417378273876535,-0.0069035451583994495,-0.06321328172021234,0.11296829649042847,0.05023906687578249,0.11897263679079817,0.06573621620325193,0.06111014779916673,-0.11851560506764955,0.0701815774659303,-0.002552062194006428,-0.08988938366752178
COL16A1,0.028701136394628634,-0.08855966043506526,0.2068701315634583,-0.0414470339911135,0.10015101823853664,0.05204616225464511,0.011508747601720496,0.09580473581785592,0.07604910779781648,0.08466718319474652,0.021129105230850806,0.07822033510631364,0.15288232900449658,0.1151154855329393,0.10964710246239433,0.012493082692140941,0.06938861006607243,0.14682458678238275,0.11935090320103649,0.13128326391181946,0.08319338153001098,0.06915406441365889,-0.038423341698088066,0.2451160761255918,0.12884349952048965,0.09244269190070256
TPH1,0.016015098883265882,0.03255410292176298,0.07731131616443516,,0.026366033441513777,-0.0003396548810971233,0.0007058592917322686,-0.004207162807691519,0.06875235116237338,-0.003298896297888197,,,,-0.015584577574777643,,-0.003964023128852079,0.03593348223304063,,0.03863688303689086,0.029272029891351532,0.052238581736386194,-0.024126799215436832,,0.08561507600484457,0.014369634379513883,-0.0015353823707416584
TNC,-0.011169317787239074,-0.059352854031231646,0.20033882950395765,0.038430986605650114,-0.03163884861361442,-0.14353614027771228,-0.005842711784097626,0.20946700439265045,0.4539855654990948,0.06896230961297528,-0.01078003220417805,0.3149378401763466,-0.1527939765338056,0.15967797051064003,0.11132707637553847,-0.06639629971519674,-0.028191082292101398,0.22641903285919177,0.034826765073669906,-0.007297022069626719,0.10408989974433679,0.12816631540995216,0.08397517832239265,-0.13101290464076285,-0.038262840794336006,0.12607599173739414
TNFSF9,0.032187019153857965,0.061455273239017436,0.007824342418994547,0.007990211923815665,0.09125510029933193,0.040706573642313115,-0.012453599426187427,0.014240924679544471,-0.1518669382774331,0.03650754154821529,0.04713549978536514,0.023248289805272982,0.06000553650448166,-0.027151218976935235,,,0.09646982289307905,0.06815005447289867,0.03467562629576114,0.01871541926542157,0.06093577247610845,0.008582086874792453,0.07944166633084582,0.018794826133034497,0.0060396064696587055,-0.02779632676080887
C4A,,,,-0.011157277038731987,,0.04488866151254796,,,,0.020836479921828154,,0.007910468377583793,0.07558354169595324,0.043718389681961886,,-0.07551334994592251,,,0.018917675952836076,,-0.013854052234495361,0.03851744706878321,0.03458858916546548,0.01458170437571956,,
CNTN2,0.08092238182033303,-0.030051624423643238,0.0565656483964563,0.0923604324627024,0.07559719351918305,0.057847905719120615,-0.02652144269675749,0.1002372197558624,-0.05095490763354721,0.009477224457566467,-0.009979086628675252,0.35649318028374294,0.07945236972780188,-0.002663233776246043,-0.001936278401363932,-0.03473563791507286,0.0861777421121407,-0.1646981896232337,-0.04712704750943575,0.11417117996015792,-0.09972754928048606,-0.03562886045265979,0.029628067830095303,-0.011335182716045292,0.011272203757508783,-0.02932103725764804
F7,,,-0.0031476425232325523,,,,,0.002092781540608872,-0.012817456038365748,,,,0.047062149803865284,,,,,,-0.000933355523980108,,,0.010331157737559287,,,0.03731376436697508,
LUM,0.04542155922935806,0.028971884309756907,0.3079785355638341,0.06625631624174043,-0.03821591381764083,0.1251536054345417,0.06469569429582864,0.006777685265081754,0.3975894649812689,0.09440473503050925,0.024136868679324713,0.18866373075339496,-0.13323625740761208,0.12937089825367545,0.06106070970001089,0.11128998228302907,0.04792346686089497,0.10699513972849745,0.20660641570006147,0.1797861822260171,0.03189441503564498,0.29838848866541123,0.013481156158650552,0.2660590111528879,0.20624168909348817,
IZUMO1,-0.033494342528918745,,,,,,,,,,,,,,,,,,,,,,,,,
BTC,,,0.05140931856089748,0.02818885418000327,,-0.046214326287270034,-0.000892050644436368,,,,0.022160517185643873,-0.003946592768369132,,,,,0.0014213000662413552,,-0.004992245272420376,-0.02933137394972784,-0.06063387020871993,0.07816038117052614,,0.010428774776614523,0.07185962816906562,
APOC1,0.05394653933706451,0.2581566001191703,0.20712288115976354,0.09030171145731945,0.22638622771736702,0.060007759586340234,0.0765967556157739,0.2571672010259897,0.5281033870801367,0.09344240638087913,0.06557549487779578,0.353370422420838,0.17130662531143057,0.1379771378155981,0.20650211501346374,0.23986419171074283,0.22403071426065194,0.15846658356275212,0.12988095832715865,0.294539574375519,0.11943142511665876,-0.06549273444188718,0.16907237762439134,0.16456619109824122,0.13560511511083406,0.1307663616761582
PKM,0.00565950870010666,-0.016436134771472963,-0.038102505677055386,-0.00031199373581294784,-0.07987734856024703,-0.18631064545500428,0.009177971418564858,-0.059905640016926165,0.20239911881047162,-0.039230973507773,0.021775880119015954,-0.23287809342789562,-0.03610447985126647,0.026793137819630376,-0.016905895524743784,0.027106199583295663,-0.007092675446614716,0.18176547119092853,-0.07997992268361759,-0.14275244733157472,0.09673802577090138,0.018795390046811262,0.11382397859463547,-0.11681819494814881,-0.03240662206883253,-0.02186850409998596
TNF,,0.040213984380202926,0.08106793055236555,-0.03456388813540408,,-0.016434469905265904,0.020515419876351075,0.08278146641419933,0.024748807437580015,0.011232036387187274,-0.00965887977333245,0.14715953550195537,0.08784828613520447,0.04329654827174687,0.08963175614221051,0.013697140707640254,0.2344170275877148,0.03953304480847212,-0.015132351951806698,-0.04186384971908242,,,,0.16142072168292337,0.011475479528547,0.005069970595091003
GNAS,0.00652582987500751,-0.0032848985752163243,-0.23920415261786945,-0.01860652987858668,-0.03324378101417138,0.1795976793527409,-0.014163515865362183,-0.222993872842817,-0.3466654959643743,-0.028315516173357442,-0.021366534288408463,-0.3697042834899558,-0.15931776817554222,0.055925929881090394,0.07575995277107879,-0.07001151447270487,0.09234098835353126,0.041563666671429474,-0.15423763183758868,-0.08110356643995234,0.11789947436646911,-0.05070804729831385,0.026708703684966327,-0.09108516123024987,0.05177621097598502,-0.02604250549287419
BMP8B,0.010414148156319638,0.050471798429504194,0.024985569914965568,-0.028903991728519134,-0.02374768369772083,0.004493327974008169,0.0010822454750641576,0.14983713815079622,0.015255040870874714,0.004274858189938839,0.056578753199063185,0.11315937311308906,0.08127486284080443,0.11716611893376276,-0.011081860116704641,-0.005960069786798791,-0.00818501152944743,0.06746197165319075,0.06470424512556588,0.053381729505604665,0.009222812043628688,0.09249067379889787,-0.037808603638522176,0.15367230290226053,0.11127883312133845,0.04534061846052596
LIPH,,0.0034980374770684133,0.0017212411115403896,,0.0310551083033611,0.009094561190684506,,,,-0.02032412665998106,,,,,,0.11513557651490978,,,-0.015227320093179782,0.030554352558016272,,0.07501839103465893,,0.052805822265228924,0.008250348033774831,
CCL28,,0.0005949964714763737,0.0014514950756742099,,,,,-0.020522248409485893,,-0.022068623362623437,0.002509574204389614,-0.046541581426227704,,0.041257526709378406,,0.0007611801369302595,,,,,-0.053707395369142645,,,0.07372775570568858,-0.012261416879261426,
PTPN11,-0.10843566124471499,-0.016151224260470606,0.007682427926776323,0.07926062910684298,0.0981954362043673,0.02325283962964244,-0.006342446390684308,0.043128104245030496,0.034533178705189904,0.023657990101990944,-0.07043307186265162,0.06009287408415647,0.05284788294354011,-0.00701633556260469,-0.0162175769261285,-0.08285713543913495,-0.051310073504096276,-0.07261666938860362,-0.08094499073714824,-0.10154792400313568,0.07495453205008168,-0.04828337091522055,0.045420139373263904,0.05517629762522818,0.040979094314719126,0.08130372231886299
ADAM12,-0.03808978658187204,0.030319784298259447,0.22783063527213887,0.03390163148073364,0.08631067994071029,0.03865250851293069,0.035094145591762646,0.16186245618362283,0.28305499440326193,0.041361006940124255,0.03721218428277625,-0.040405302809834565,0.06835886670958172,0.15093165157619504,0.0013315595497003262,0.002917970453302662,0.11347493044655864,0.12780824882263647,0.18767043667477784,0.1357911224583605,0.1235760723043922,0.1820475157566064,0.00011892674576182861,0.17516019410432465,0.15576188479947967,
EPO,,-0.03406494003889651,0.0776715203683215,,,-0.034003367400531566,0.008795706816301038,,,0.043235722336297494,,,-0.017891034344112235,0.09164799582235329,,,0.06724430858481793,-0.05325605776447577,-0.038632530667327955,0.03613930073068,,-0.015357884016350833,,0.019182644447729373,,
EDN3,-0.009163526351366922,-0.013935790270547104,0.09266874417131606,0.009742979277688522,-0.01713932855679103,-0.01663260935350962,0.02103708333918279,-0.009577385085278398,0.036477689749013394,-0.03426366684532208,0.004404534543535315,-0.1049315747983061,,-0.030799257917723748,,,,0.03413847989790111,0.014316095222872133,0.04394197602432758,0.039806677573514186,0.022917483349998224,,0.05500702889839115,0.056770297761277976,-0.0892269748298677
CCL22,,,,0.057989549921476174,,,,,,-0.0476038238545327,,,,,,,,,-0.009398425239138029,0.07302894679787127,-0.005170141407367838,-0.019582952779642355,-0.03642596978474168,0.09157478947278967,,
CCL2,0.06348735981814121,-0.040903659557576945,0.33475599592228855,0.01720583163481666,-0.03884009970947137,0.025781313097736566,0.007034653164969682,0.10005903959104964,0.161872685174992,0.1044864820067527,0.07240208702728101,0.2689448231291462,0.14185468670716858,0.09590017042953936,0.09231766738114551,-0.10054103466481933,0.06481320831941421,0.18954635362708164,0.1231822315573311,0.037630980212936045,0.04387817870424271,0.10447453263835899,-0.12200072085889117,-0.14903099162222724,0.010674724573845608,-0.02969208814491673
DSCAM,0.053253855673127654,0.03991600144988996,0.04233496573633727,0.013589541513594823,0.11342384983612185,0.06279188038582943,0.001991348241252306,0.1501434213640895,0.06986984616913364,0.0370066787335935,-0.00496453890834137,-0.12121743112683396,0.0806650251543511,0.08710515327122696,0.05835750720450766,0.03743340055829108,-0.01263975615572536,0.05677733224859429,0.007302289500429487,0.06719228937214225,-0.005218070528930284,-0.06909736072398194,0.03392571868863061,-0.07014950428756432,0.08492070859990664,0.13241242726494493
GPHA2,,,0.10463072702452954,,,,,,,,,,,,,,,,,,,,,,,
ANG,0.06458186886009029,0.06703723989525012,0.02041499719446124,0.062228563277500745,-0.10259418863080424,-0.12173433530131549,0.03551689288190445,0.016316975449868317,0.22414361556791704,-0.0062889968434322865,-0.021973238994977093,0.10104269598700288,0.010470462860178099,0.1293366302393948,0.062359855714088565,-0.026757582536110824,-0.03086448846345209,0.10264158280473212,-0.025508361086486395,-0.04276318414231692,0.06921480953565722,-0.02080690557847475,-0.03869407774283444,0.10244934445126755,0.0355388164383404,
FBLN2,0.019785732579174313,0.08882614858394004,0.09237683570446549,-0.019564998632404112,0.03433498926749151,-0.03136588091659712,-0.03858763631906217,-0.020085854986799826,0.07057088957683874,0.0010039022121652932,0.11474743491568368,0.05847862807509531,0.12376907382910408,-0.042313219040056936,-0.1473765886397663,0.061307078928450186,,-0.03630527908359453,0.16794019823033468,0.1266773264741026,0.03572672381753777,0.2019332858926098,0.051432149706204404,0.22674292679149452,0.14701174437563966,0.03853627129513605
VTN,,0.08788671398102287,0.056517549883948054,,0.046135454593411646,0.03575324323863789,0.03873818314810522,-0.04790436930843589,0.06249215358991313,-0.005244431983876965,-0.016278853941416413,,,0.0029898867825766244,-0.03639581118069951,-0.07485452444277128,0.11670806900498311,,0.05423301460817381,-0.007492021948907731,,0.06939481793348691,,0.08996207689771045,-0.04818222890034283,
VEGFA,0.012260861732358859,-0.09405177370227219,-0.21001649779790188,-0.032798943465698005,-0.17985689732665197,-0.16848248546525718,-0.03924770077484972,0.2030148292985599,0.25148263942621246,-0.05477680101031598,-0.037197146496506295,-0.012770415880601191,-0.17900318358749667,0.10712288269115378,0.06953316992941938,0.042223519110476615,-0.035108126802657416,0.0790178866997704,-0.17829367909111388,-0.2797296993557562,0.08795818218223637,0.0639839770312286,-0.06833597163627544,-0.28293798495097616,-0.007850084248968553,0.04649254030836697
F10,,,,-0.05544502697001866,,,0.04010357026864697,-0.05118990132007729,0.06432521947514007,0.017793875216832525,-0.019152236651699798,0.020630979447670603,-0.021573664927308257,,-0.026008528076929886,,-0.01283268831122747,,,0.054986981478178265,0.06248756273247729,0.06526891436697838,0.0019097680104184622,0.04890913751811133,0.035677591739622386,
SERPINA1,0.05459527101353203,0.15078403175441596,0.1611442385794496,-0.02872661088111312,0.2110018098630079,-0.012932820984876655,0.1140519578528669,0.10973424847806804,0.4157992197284387,-0.016643618650641206,0.04232104361487601,0.27539599447402996,0.1007208636394461,0.10834139168582724,0.07961273979974492,0.03607049622213856,-0.13280605921907196,0.025133696866139393,0.10910375741354399,0.0596127737979911,0.011419066057798667,0.19719869966524245,0.1268020883842366,0.26696410875357945,0.14526659210324083,0.1426420955839854
VWF,0.019656425206585084,0.0612924998889702,0.271832747458623,0.008966614764036191,0.13151693359114175,0.10255016636831736,0.0321474700973626,0.02466049979973747,0.34240279007876434,0.0522367190970057,0.015851482598974422,0.13075506025187286,0.11024425613763583,0.07707990259654932,0.09088743509861984,0.02481367737009798,0.17101450257393427,0.09157257980861017,0.2173956891854782,0.1854571118678518,0.09803142874032583,0.20527368865919618,0.061787372723289276,0.20275931066610228,0.1579000582130745,-0.01132007737576617
GDNF,,,-0.0421014790476453,,0.009461362554911723,0.01095552627843107,,0.19268217773983518,,,,,-0.017627047327533917,-0.0228971264327143,,,0.003974513112655431,0.0895721736872003,-0.007925984774656137,0.01929132768359623,,0.1132816964427888,,,,0.16571068786650003
VASP,-0.012737906099995751,0.047596670071666236,0.2456499092625441,0.059459560367625224,-0.00011793663633161535,0.021177671157549625,0.05132318286500804,0.14906872444639738,0.2821337786859413,0.08566014138526473,0.03613559200051405,0.18369310701064495,0.09975079148328668,0.15589964462677072,0.1602003482974337,0.06710389692375782,0.07925944474525819,0.04552454241571941,0.08299334193233203,0.08271423687343993,0.11107769490887884,0.14491026962528414,-0.062480539171475356,0.1476313911957558,0.14225294039537914,0.027244077769461007
ADAM15,0.06002441833500006,0.03900918553068668,0.12293292003885785,-0.03602657726482006,0.07256851307729315,0.0283008499361668,-0.02071209225382652,0.12861700250588992,0.16588172620081362,0.03289730671093706,0.05320515991442072,0.11612647906945138,0.11399088514460792,0.07848553946979274,0.039948769579273825,-0.002841352242059252,0.03847826035712324,0.12491421648721672,0.09274037291202163,0.08975620588407981,0.06297650928293486,0.10072803331377514,0.007558056037205512,0.13750273224620468,0.06915082192274931,0.12128179956252055
WNT2,,0.0811142350711962,-0.022860019161020286,,0.004154895849621417,,0.04834169204734757,-0.00012977588217318332,-0.0869258262060469,,0.03341773482364065,0.045701006541873875,,-0.049346406939112214,,-0.09549220836200605,,,0.04507687177617438,-0.02650353623260328,,0.048073898558160556,,-0.013789764047986753,0.06083428045452953,
CALCB,,0.034656931634077716,,0.05232985447057214,0.03985900032943859,,0.008000782700883183,0.001719471502561294,-0.060462418249617116,,,0.027124993360204498,,,,,,,0.058588312806725634,0.05245703961774308,,0.006741185224448292,,,0.0018577511115966522,
OLFM2,0.08178668853051956,-0.03798344848963173,-0.01761980870876824,0.00295045500922622,0.1444712753031306,-0.024681019013547585,0.02754952195843561,0.025049250237003086,-0.136675895661992,0.049681726831264865,0.045967284588029934,-0.1408891846863576,0.07204696875756887,-0.014652000488003318,-0.013971481085012453,0.0766606142208352,-0.003911140614331642,0.09919146812432951,0.024553090972581057,0.039381693220781555,0.035651536157667564,-0.08886888352067746,0.045519287080198874,-0.06862356761204508,0.0016380313645041982,0.053266603430635044
MFAP2,-0.033892197443991016,0.007448529142689406,0.30391164042475377,0.009866237070807962,,0.007980386649551863,0.014478537325159115,0.17841074281601987,0.28699141745550477,-0.006552570883357608,0.034477617700300896,0.053127785547287774,0.15744667450634126,0.09344471411955405,0.017337714436801887,0.09220797957422068,0.135340044724084,0.0939108601957849,0.06536553323968627,0.1498682518704525,0.12252495509613405,0.15815726691583143,,0.27095444730427093,0.15892667675722089,
HLA-C,0.02633530022152387,0.0156719762396939,0.21563201283011516,-0.03750318349305736,0.14070463633535202,0.02601817552334803,0.04423989674128068,0.09840700509978367,0.4808434215672035,0.09426822433185074,0.01971640487493094,0.42362356110666566,0.10848897437027208,0.22720054321008068,0.17020524407524862,0.015079837018281472,0.10247884735901874,0.11728109824734881,0.11954698305258002,-0.014592246785647772,0.055690128581247896,0.17317891702293509,0.0647884562238047,0.18847896318150179,0.12596797453307554,0.058824351792437134
THBS1,-0.008017927412634778,0.04150394592506965,0.2034846104151395,0.046742932802520926,-0.03011477252446994,0.02906730959872616,0.04491828461684192,0.13393711079419096,0.18153535925751416,0.1105480979294546,0.044295949426189876,0.1489205735579108,0.0422073602773913,0.04627509938970971,0.17906818709064934,-0.038767471684284564,0.040528618210497386,0.049278644713860585,0.02349644334046329,0.027506211240397625,0.09842622260555002,0.17467000677102215,0.013585614809929517,0.1613024352439755,0.21289055472176782,-0.04506665647581458
HSPA4,0.04195685237571656,0.05910920536781149,0.06633279309576473,0.04164319226356314,0.031239498133097874,-0.018540692646904208,-0.035890082894871764,0.07201246407210449,0.08260977508842374,0.01808803195803355,-0.027971630585184336,-0.052488221233144075,0.05706509829256145,-0.020624553929723826,0.05473176630693248,-0.010064636361186922,-0.07407147543816402,0.003736812307879031,-0.03392239798789508,0.09474863759817787,0.026284277881871147,-0.017865767082642835,0.06585264747625161,-0.02582241072364597,-0.021270971621260786,0.1030876805367927
LMAN1,0.05180222575151038,-0.03888744132434372,0.029592160530899175,0.0011797319098156888,-0.0639727180565766,-0.06536128855944329,0.026221747556607475,0.0898489740393607,0.3681651477884354,0.01676578913598864,0.03743552277408872,0.04469021939584091,-0.0628635089341814,0.11643949502585607,0.028633450664224864,0.05005447530907748,-0.04261211862319083,0.04646857441435217,-0.05968236487796749,-0.08416422805053013,0.006486611706414311,0.1092314713393956,0.11617232781447055,0.022587052707618332,0.035490079705100985,-0.050294437224203924
LYPD3,,,0.06409653860616332,0.005307701046740394,-0.0022503343652726672,-0.005514956746828615,0.012751761254418958,0.0475076234946483,0.09132840615869783,-0.012331243817732191,-0.012984361666727555,-0.006132783605128901,0.04529316370464939,,0.08315304113585233,0.11958475540155573,0.056286553577820114,0.021152497417847874,0.07308235991404746,0.04959637375133411,,-0.014205911085441086,,0.034955980604365236,0.08717731025576611,
APOE,0.06488558162493725,0.02421179957460533,0.0706028173379371,0.04989825984265201,0.18576456772223732,-0.0018711722339922352,0.05080929034149618,0.07563892634737182,0.2787321884441971,0.09201590754556518,0.1092022759313148,0.3691687087116822,0.08359211359753495,-0.08700542448267236,0.05035106159775234,0.18847254043074987,0.09207124915408425,0.036007780527435154,0.10477100774492548,0.1125007329716883,0.06474010015939949,0.03142673763904524,0.17719630800482494,0.18315026092840941,0.13254174921545556,-0.025906390677086565
SOSTDC1,0.0021762500566292046,0.023374690323302916,-0.03156253115349099,,,,-0.04225976422688498,-0.08216079006569006,0.020322777171954617,0.032148205087483825,-0.014859869576287491,-0.14503932039328143,,-0.07576220560700091,,,,,0.03427511232270311,0.04253890877255732,,0.0121647140299808,,0.013419375820762375,0.019498157066471122,-0.057029541248410795
ANXA1,-0.030291442269331677,-0.03787908957521089,0.28694194117110944,-0.04047880438093647,-0.04245915221081952,0.01811788390471232,0.05921921889779014,0.08663170525326619,0.4833207295815885,0.09831047843345954,0.05595942718288556,0.2783135102787529,0.023546307601795567,0.14502468094139565,0.17393520834345363,0.08273517973519358,-0.06464692245645604,0.24406091935515065,0.012118106968444958,0.04125828766087781,0.020722330462977875,0.09201144317644618,0.15008791014260736,-0.02192101980924629,-0.06080144240158033,0.0457608738144585
WNT2B,0.026047649467140263,-0.055071125541635575,-0.01185605111554595,-0.02719438264463942,0.10998208457233784,0.026929789172017885,0.04561395359316722,-0.010939200829667178,0.14455655221885091,0.03232027014933731,0.022038439153661493,-0.09093504272753666,-0.018415068367687793,0.012764747654574297,0.02526385877149219,0.09302632056498683,0.017172848078980556,-0.0075455019555994065,0.07055670937001723,0.08438906191360872,-0.016384690936347573,0.041244980196157056,0.13224264447535805,0.0964229180589146,0.08053026551377068,0.011497604937226014
AMH,,0.044892571739775976,0.052246301895238205,-0.041408383486662016,-0.03492703557910809,-0.0664133251721666,0.006454637554359179,0.04993326950204873,0.024834616687985395,-0.02743737873201946,0.018100366298742235,,-0.00044134947875069583,0.06368867891678802,,,-0.009167953169045768,0.01504942653147853,0.037760428740465944,0.11226759960118786,0.03363536371666129,0.0032196231051719827,,0.0024128488362279202,-0.009951086099224698,
GDF10,,0.11031991190576601,0.009540092165273698,-0.005870259903600648,,,-0.018292807568549778,-0.0370684459529018,-0.0866221982851099,0.02824409840701974,-0.03206308167286952,-0.04886349341648807,,-0.09719655102216004,0.05325111460820532,0.08082984593270175,0.017792825480905095,,0.030571006539044182,0.029649057255659406,-0.05001949703275445,0.04192284001529983,0.014806744665102942,0.121303108545647,0.014303757938843848,-0.035828308630149935
EFNB3,0.06281383931924622,0.031298666459263914,-0.02126506331000338,0.025560281321579493,0.019797731307708035,0.04740240064458379,0.028508565756347217,-0.12473621846342856,-0.10291210518882972,0.0007851929852213915,0.0345669167499993,-0.2892700433764648,-0.029928445537136132,-0.05520654802345476,0.15017294426469957,-0.053633580421452456,0.07644432104992348,0.1099637295843398,-0.04128101320748334,0.12548194145737607,0.014766087892901134,0.005338008153588662,-0.02414664615858085,-0.011070303507458253,-0.014235789665728565,-0.012220520200832134
LTB,-0.0014294535381545886,0.0020786129426056733,-0.012835486620372184,-0.04945743992710575,,-0.013995492419009882,-0.04877096525671447,-0.0030640384242950677,0.028199521637737816,-0.021439452991667836,0.06751017163034903,0.03663988231528762,0.08824166158306908,0.011337305509096405,0.06512896406727707,0.0824532563841814,0.05024602179630136,0.0853478186304987,0.08850967610465789,0.09718732956368743,0.07940188750798534,0.0061109969420427845,,0.2640598178599811,0.03594598576618055,-0.05132875411289941
ANGPT2,-0.01315429182940908,0.03591227996797509,0.22098060443573128,0.034815686477298956,0.09311155509940781,0.0752187249496763,0.04635041329467909,0.17571342637706394,0.45415207377305394,0.007490741203138511,0.0079379545231355,0.08380365659142011,0.12091819217494117,0.1661685522935842,0.15785273030887842,0.04213476445747845,0.15897385395871735,0.12431986964864236,0.19766067750592875,0.06486123189561381,0.1269100411713531,0.21305273813446476,0.10609176252615544,0.12382270487309979,0.1981459622403999,-0.03888553154984973
NRTN,,,,,,,,,,,,,,,,,,-0.051465519662209074,,,0.04920713587373586,0.04485336864596327,,,,0.061887152349578395
ADAM17,0.004286865273933804,0.016489286946942287,0.0793043834083608,0.034559703543638076,0.006854089842702953,0.05823657763934174,0.06219195616116816,0.14422764814009859,0.2038526987408312,0.08788847973771445,0.026883207473153148,0.12570266237400707,0.07737723864098531,0.09663334367814104,0.023793012153943832,-0.025375368306817612,-0.0473945953600177,0.11846469626637954,-0.01114735417590434,0.03551856550542786,0.06739262003890459,0.05212866437675771,0.021310070753517256,0.08928447413666561,0.0243036143197817,0.04671582013857244
LRPAP1,0.0722066526019672,-0.10823449207124972,-0.016776796378002022,0.04241976604799527,0.10250205515162887,-0.006451329054386543,-0.02155574393304432,-0.11147695103330461,0.19913535686424064,-0.002387657476577632,-0.02176432555048602,-0.06837474039111914,0.07489601383838432,-0.04836740356579511,0.03218823164354304,0.0037999653489282194,0.06010278918931212,0.1796843367409981,0.04836481242472019,0.12320474835592483,0.02567312243957441,0.04306833362322712,0.04943653348457439,0.07071998197152099,-0.0338091301469535,-0.01660932173912957
NID1,-0.0049735986835483794,0.06584387227644564,0.28336207686122894,0.02388031540569209,0.09163112292162005,0.09743787919696235,0.04832482982296975,0.19607941867116707,0.46247931602071013,0.01769939948449861,0.02934942455729987,0.07328687575273397,0.11486466671575322,0.13218217345529995,0.130811559169166,0.007260443590371508,0.05400204081700965,0.14496200510176618,0.18141256831725672,0.046881064236536055,0.07664283745140148,0.29059999180107926,-0.0055140984545121,0.21983107290746137,0.24903637409617754,0.06034341144162312
MST1,0.0037554241299347277,0.054210920912323955,0.03651634143044618,-0.041719926761491936,0.1557798070752573,0.03814147096246532,0.05822311406931717,0.09091868466638353,0.3416852364868657,0.03684959630060842,0.02222285501594355,0.03962937472840516,0.03885296749297044,0.09048143533022296,0.061188698326061663,-0.07323987620494483,0.0616089868012467,0.06249271353826344,0.07565421544575067,0.13566816957981018,-0.016296702331400455,-0.006013666516246898,-0.0363410733706725,0.07532807977831167,0.03649498514562922,0.00878143466666587
CCL14,,,,,,,,,,,,,0.04246097088424821,,,,,,,,,,,,,
IL13,,,,,,,,,-0.0130567467518602,,,,,0.017660420991465347,,0.09746031724694264,,,,,,,,,,
