,MGH258,UKF243,UKF248,UKF251,UKF255,UKF259,UKF260,UKF275,UKF296,UKF304,UKF313,UKF334,ZH1007inf,ZH1007nec,ZH1019T1,ZH1019inf,ZH8811Abulk,ZH8811Bbulk,ZH8812bulk,ZH881T1,ZH916T1,ZH916bulk
IGFL3,,,,,,,,,,,,,,,,,,,-0.024882339911204508,,0.01785710781518902,
BMP1,0.03317367705966356,-0.020693896625204367,0.06006071110155513,0.02087074232137193,0.09565095096268725,-0.04469344380395693,-0.0038837923583092916,-0.005766243402035075,-0.012327106271326011,0.02212150009659133,0.08833254203226236,0.014726560592752116,0.021985998968411417,-0.044788592580722215,0.09495818803248454,0.0719548633002122,0.07388842497184989,0.07850890695410814,-0.05248603127986859,0.09709043934341857,0.13773882101968363,0.04554941663499487
NDP,0.00034528237645356903,-0.07454058404552663,-0.027477060880174438,-0.002727174830184438,-0.01120294503946232,-0.09557555463150691,-0.03511094787200194,-0.0189570898840554,0.01994646885478248,0.02977422166949428,0.10899954412177755,0.053866030277924,0.10926978496910573,-0.11579961174826234,0.10516524030588256,-0.03873238674567839,0.06328918420554919,0.04374679474952885,0.04956947053076947,-0.059882704258132025,-0.051947450574930006,-0.03611498649507461
TNFSF18,-0.035592931078334986,-0.029289701146315177,-0.0018711315833159986,-0.004603069850603775,,,,-0.01433915972666538,,,,,0.11073662432228135,,0.014365985492771082,,,,-0.025660717951333793,,0.08705772157615607,0.07674224384254533
IL36G,,,,,,,,,,,,0.0407377621877304,,,,,,,,,,
RTN4,0.016625661709333103,0.03452166806344868,0.03782974639221334,-0.008364744688560102,-0.020445191383157132,-0.05664047050941961,-0.027883910710434456,0.005665055617611107,0.012066275534654626,-0.11320605403273568,-0.028488767833324845,-0.12801235059361754,-0.09285911766230613,0.01891285124155289,-0.005467835754102454,-0.17092520850559054,-0.029812558089501274,-0.009262110634614639,-0.03035127140987506,-0.032368736809806384,0.0007538891650330011,-0.10984863990591263
HEBP1,0.005775470433174783,0.004196424797128157,-0.01283987443122499,0.012982500686474744,-0.017429474243243735,-0.00814967267745714,-0.011178298783408052,0.032907876268697026,0.014565914237523417,0.0722317187663345,0.044759394508160126,0.04140717739264278,0.013835820771388353,0.08827410454030529,0.06778940197977115,0.05501964130146446,0.08015750628644373,0.06386438003828576,-0.12458470272461446,0.020544937823318066,0.08173569690169502,0.025665539279146162
WNT7B,-0.03135625747841143,-0.0725035958022816,-0.035983804560126,-0.005433452329585377,0.039331349701944185,0.029981928251763018,-0.042622854002656016,0.002350070849124348,-0.016779664367368306,,0.007643813186366206,-0.027889539602866997,0.04946753144963417,0.07193585822483686,,0.07408580243395993,0.016994406865922795,0.10300839067470895,-0.035376270675587934,-0.045309090739350175,0.008154718980184784,0.03449594782681875
PTMA,0.03488578576541176,0.10376339738563695,-0.032861128283584354,-0.024477053078513805,0.10625132476136426,0.05608501869526662,0.0014245166270997049,-0.025469036269414252,0.05911387020584688,0.12030259278487697,0.0031384183063990325,-0.018663420375848925,0.024649583595508413,-0.13644535891297888,-0.015796223059236607,-0.09434798719309395,-0.010217885921922784,0.06656748114448122,-0.029155718783001678,0.02769212343461566,0.15260777933885197,0.07891541677476487
FASLG,-0.015829465221796866,,,,,,,,,,,,,,,,,,,,0.042207748337642924,
CEACAM1,0.03350302170369613,,0.016150139781732343,-0.016114408036558482,,0.032334116408328735,-0.017927139503220835,-0.022552082174129753,,,,,,-0.12236634889144371,-0.052419782416216365,0.07719441602316703,-0.03088905310137119,-0.025504772026274537,0.04609139494489695,-0.03060530032209795,0.0351615551120287,
PDAP1,0.012421547290899337,0.0019600883925152395,-0.08678748047229194,0.0626171713853403,-0.014772099019924347,0.042790974782882005,-0.02909359583098621,0.03485690310792114,-0.006602349603876639,0.050109259144844785,0.07278117986879323,0.04056582725903508,0.03458191080377836,-0.1562083952271052,0.014993141164712035,0.015364411539270786,0.01248292817804799,-0.01526194455574013,0.0832533933018731,0.06782530602716534,0.008463945714044782,-0.0029533696078419508
QDPR,0.005250933559593352,-0.08765794687865255,-0.09484060785571323,-0.01881466410781715,0.00905384775499519,-0.029098769754132676,-0.09279269421952877,-0.017778013776065568,0.004635651770132283,0.12529783394364605,-0.013289805565177183,-0.09303659741115103,0.03164997258458726,0.008920666903811117,0.06734562683415958,-0.1677129895263418,0.04740211319212878,0.00920486308403789,-0.012838889740939,-0.056159036441949216,0.0476739753797107,-0.12264536628313426
POMC,-0.020861569706879482,-0.08111889663518672,0.03967546769679429,-0.02863273214644789,,0.06119096480140199,-0.06961189517280851,-0.016638027032781447,-0.009753454749180736,0.06947684385719537,-0.006018046907510624,0.13349597080253145,0.052770405859029874,0.05907809019685428,0.04309601984945831,-0.05115586677579018,0.03617351257855423,0.05568609928252209,0.1195130165095905,-0.05033654053065822,0.07971395913960572,0.1323204977236182
CCL18,,0.06035034923615736,0.05246559721205198,,,,,,,0.03329336346101281,-0.028667575159114562,,,0.0010383988134845042,,0.10069873949478989,0.03894170781367157,0.06243079949772656,,0.021265752093737544,,
CCL17,,,,,,-0.015319768270553015,,-0.017883723927799054,0.1483476869360054,,,-0.023180359302941975,,,,,0.006701959969154645,0.12003868265465452,0.027077937681051243,,-0.014408952466669227,
VEGFD,,0.03764707919150233,0.03047759606968674,0.033018726007843294,,-0.006368791587609358,0.04927221684844225,-0.019053595218888872,-0.015233961079690864,-0.02840803123434058,-0.003880113458520191,-0.024843109038037832,,0.042680581649106306,0.020353095103165415,,,0.05378634200703692,-0.034600128348225706,,,
TNFSF13,,,0.07366718496491763,,,-0.030231194812354104,,,,,,,,,,,-0.03729992174323828,-0.002574626663826474,0.025286848579553278,0.09294962924235675,0.09193395629463438,0.004864705723256853
WNT5A,-0.04513015091277827,-0.004184961968150644,0.07620341806597133,-0.002143639927928804,0.02982512154134871,0.009974083537153209,-0.09679887461669409,-0.034435460257477034,0.015330978461240706,0.06967675502387985,0.012016558984046698,0.01067649694637808,0.016973661645300727,0.1083395894687173,0.0319179692246021,0.12170911176539202,0.10691567226866086,0.09119830593943647,-0.022701063843732387,0.09525439549439671,0.1349950987803714,0.121184844840612
CXCL8,,0.15658614179169408,0.16564051877137456,-0.006735893594172355,-0.04228030333102632,0.19084642301739127,0.1412103995876689,0.00435336816996751,-0.01418652695205737,0.05482729284424667,0.0767145211224005,0.17626923251200094,,0.28858375392145136,-0.10736252562026322,0.14212619696495604,-0.00726950296087989,-0.01944512973849716,0.13029141105616138,0.059552078753452156,0.14226787528888094,0.156071885282791
GRN,0.0619778492718799,0.034848311835987154,0.02290402248709524,-0.026811797535954182,-0.04267007104756796,0.007052510241578304,0.06606691051333713,-0.020041024226502367,0.06315495714303448,0.09144440251823198,0.0294763566085808,0.05392908982247676,0.059235981099388574,0.007071783022989552,-0.002159328798583549,-0.028057724745399935,0.08074726202613985,0.0853190547328639,0.01522319646489011,0.09296022653943828,0.20252633678181575,0.006237335484736412
MIA,-0.017095202100339497,0.008578689454695318,0.05269154308903593,0.04156502236879268,0.0415424202524148,0.007631014795508465,0.04295526753572997,0.022031820831741485,0.05101774143631952,,-0.0017892164914335741,0.02863985729371337,-0.0015525965592651948,0.01800399573970382,0.08145943058702819,-0.014009230373814636,0.04368780868122853,0.022156298932815392,0.07475941352919874,0.14591715447968315,-0.03173523577495729,0.03934349801332583
COL4A4,0.018562331292117193,-0.012426031883175554,0.020751260885254284,0.004134793965891534,-0.04779297830181886,0.000636138815149619,-0.030447028496411746,-0.018671161079281965,0.010965252965486014,,,-0.02237300453999279,,,0.08394899051166169,0.04650524910097721,0.04328113365333921,-0.04265132476778365,-0.02858300218853815,0.008491766851115287,0.04855153277559688,0.046493409874567994
TAC1,0.028835946205488645,-0.0818442380996532,0.027307716656115692,0.014184155609007857,0.052651109829833245,0.008749804335074517,-0.04738503003512875,-0.00015025165194296658,-0.017307713280147324,-0.1421686424738021,,-0.058490571630464235,,,,,,,,-0.042496851861228806,0.028059217373065652,-0.09605839057066272
RARRES2,0.023730575793670997,-0.09012884751040066,-0.0724665652831488,-0.03938029726899548,0.0045805780190327165,-0.012836310994441472,0.10117533809663952,-0.0063564149025767056,-0.03680947803016305,0.09111965309954499,-0.03856942798950029,-0.013628525599843606,-0.03313413404005292,-0.008777149905111912,-0.0034417359819711667,0.16766431364918116,0.04221582742243202,0.06707117048740296,0.013660977094002607,0.07902521646252156,0.05680425234174382,0.045701723975596444
FGF7,-0.027575556390979864,0.09659418126509224,,-0.01345123105499594,0.006747892783329936,-0.049142754508327634,-0.019960604202278107,0.04968508771566583,-0.034602818482673964,0.0404216799983235,0.001404066282500998,-0.0083288715144654,-0.0019664802021803554,0.1139385524191085,0.09506645880366853,0.11850247470506843,0.012847208383341089,-0.003472796193795537,-0.044278434890918844,0.017172727177986163,0.006274323630357139,-0.01117468090403067
EFNA2,,,,,,,,,,,,,,,,,,-0.026252385766066245,,,,
HBEGF,0.019563598412618576,-0.013155643972836504,0.08771241599296292,0.030189580280859656,0.05429401089039087,0.010816503705195712,0.07519504918818039,0.01070105957029096,0.05214734036618397,0.08396456949129426,0.07596481525188765,0.08459205423962182,0.14085276345471287,0.10055489566473351,0.015827397335972465,0.1235887804505627,0.06251150757433806,0.02852775313437021,0.042170455135127655,0.07605489416548339,0.09567878125234412,0.14205098529226512
CSF3,,0.06752047992123453,,,0.06933039017581084,0.162214144332059,0.06091683349045904,,,,0.09263692895091379,,,,,,0.01150120034120627,0.062287157265255445,,0.055805113423166276,-0.025990417202278723,0.03039017295091117
PI3,,0.13147958327599463,-0.038628274946326036,,-0.025287420482478135,0.1205552797939503,0.07721730547755419,,,,,,,0.02780961058517109,,,0.029875731210489618,0.009366232278234968,0.007369001923204417,0.15148774079954672,0.025404305339220397,0.10915338771815493
PCSK1N,-0.03420481594256002,-0.1395058739542994,-0.048333755869475865,-0.02279162819524282,0.03454665344892959,-0.11030763108092538,-0.09580044875922195,0.050531297652809976,-0.01535113254147877,-0.057326512068496475,-0.00032732702058624704,-0.11087470712395435,-0.03430141034058688,-0.07474209223832509,0.04586437546276353,0.006534198482328466,-0.06157328380244776,-0.05731787873593874,-0.0007340632606966349,0.06183268576348398,-0.07707474143621637,-0.11926032318910812
NTS,,,,,,,0.06723652449442455,-0.008013580142308461,0.03926786744197238,0.09872882173362207,,,,,,,-0.056407835297002565,-0.05512737046262943,,-0.05212507053270472,-0.022544490593079964,
SFRP1,0.008261428865626128,-0.03302643640538026,-0.011549672572573187,-0.00022657623173843696,,-0.038241145085680626,-0.005400272523826499,-0.016105966824081268,0.07445824314842331,0.08612491819230084,0.023841829330946238,0.015062406749923263,0.012605867358944698,-0.10396374588065375,0.022942433674270225,0.05360132161488822,0.04250364556920819,0.09749430188645515,-0.008058151210856164,0.007847279314437228,-0.05004216428685346,-0.008256799671603804
CXCL13,,,,0.004301931055518225,-0.005120208919869033,,-0.04040737490142151,,,,0.016632848329272833,,,,,,-0.031303858153943605,0.04768921280967533,,0.06494780274462225,,0.0019100183432632274
MICA,-0.01265205471994824,0.046727252648614395,0.15106312472528902,-0.0030416161658744145,0.03690899667002187,0.1291336793546657,0.057394106571656375,0.049764753798667495,0.03369218512454994,0.11044445423417154,0.023694105318017484,0.024776362291958128,0.03255692556831865,0.0022210097179787983,0.05725910009477787,0.03507404163049035,0.09076945810819782,0.14080536233619756,0.09080976465573501,0.056176534248965966,0.14929007010621226,-0.015637979408521595
TG,-0.036314368982016315,-0.016992927196700987,-0.021757122793755888,-0.021912348129412753,,0.010746204168946744,-0.019657059431983766,0.061130017425856276,0.10146219323638139,,0.01818420575011299,0.05631039395927616,-0.013529697466400634,-0.009622842937305066,-0.006767927965207262,0.030524344560879622,-0.00553594624259164,0.026423759073589227,,-0.02000766145720911,0.09325551021057829,-0.029318243580204344
ADA,-0.009060078327767044,0.02672450456071952,0.03246357277066468,-0.015066892064397184,-0.025904786688184044,0.024915327417240615,0.012302512274551593,0.037640006984769596,-0.024410071997369647,-0.026536611664606212,0.08081573070953521,0.05639655349784986,0.09542360766010927,-0.15975629433130717,-0.017692341013569302,0.12229564840104379,0.03568220934484293,0.07998429111840558,-0.053565627098015156,0.013173695386244619,0.13307806830824687,0.08812236957839087
LAMC3,-0.020953239189995764,0.04817187153469227,0.042129179454929444,0.029880879174540406,0.012745105039199426,-0.016168683439169922,0.034061968781601046,-0.018760016511948654,0.050668566582907,0.07003190173454336,0.010044488674270227,0.04068331012005302,0.0019392603523824164,-0.0661951659578064,-0.011454484765523755,0.15051318546397383,0.09608454069003641,0.15931675975727203,-0.0005131217723859557,0.043357883194161354,0.0962777313810489,0.04805460432088618
CCL7,,,0.03661654701076795,,,0.06409084546697666,0.10849795807501242,,,,,,,,,,0.09034568648835631,,,,-0.004314758678030511,0.06265924404059492
NGF,,-0.037649253457445075,0.05062159982435817,,,0.04887343463369981,0.06910279132957203,,,-0.04654425353717277,0.03182331132761232,,,,-0.04143981553055731,0.06477644207489991,-0.01224784327508283,-0.0033631869114374422,,0.030455917870098628,0.15143285475405396,0.04495625789870318
TNFSF15,,-0.04657682528193639,,,,0.003878646983922721,-0.039665059221341815,,,,0.022898602317948335,,0.05408679524621244,,-0.046604652073396084,0.02799654535932788,0.07963861096261926,,,0.11303163875292556,0.05355080395610724,0.042970849008576284
HMGB1,-0.02811071456908666,-0.09294268344065064,-0.12216530265523287,0.06279647340139882,-0.0012683098104129848,-0.08775309989497466,-0.09151340255008703,0.005532794263947183,0.02517060422874081,0.05270574514364088,-0.014399168659638252,-0.05627459365518754,-0.023317995573758004,-0.26931921109933704,-0.027833818655020746,-0.11949697403500699,0.041091755895770375,0.008721235685618276,0.03541308997565583,0.030013357893979558,-0.14645953107638565,0.003056375702843657
ITGB3BP,0.009353963600008706,0.04856257061897243,-0.019741839356856215,0.026627720100320298,0.09332914853116943,0.07594577247745357,0.021179857075443304,-0.010392197911067868,0.06955827271030891,0.01639739032534685,-0.003201384835644919,0.06041674442056547,0.1053400708407503,0.021404983840143468,0.05636777540187254,0.023754263891709454,0.07108166143930143,0.06356516063319873,-0.030370015683329837,-0.04971791467307943,0.06453231934962785,-0.0045881844361317795
AANAT,,-0.030134673688234834,-0.02378460619700108,,,-0.010405932337808569,-0.03574059055725934,-0.01620295083734979,0.04945539218310825,0.010226814152112552,,-0.009459937890339543,,-0.06053845410850957,,0.010853168582842914,0.0017851179172888388,0.0297525546205832,0.05919468499017092,,-0.027430350276319678,0.06408521988372184
RELN,0.01765687574795261,0.005929327394420383,-0.07315377434519106,-0.017533318601955374,0.006131921210078222,-0.01052519730858339,0.009085888318348135,0.022387373080242287,0.03293626481723143,0.06019881314058323,,0.004370940807632247,,,0.020842185518764954,,,,-0.050747642449557887,0.023241386324386257,,-0.031347592241655724
IL15,0.018927229275137274,0.10909161064027481,0.08184903386476979,-0.003992931876765635,,-0.01766690594097949,0.02574852977114663,0.0032422182224178843,0.002740791815141886,-0.0010333267664872012,0.02813418837008686,-0.02883846560590776,-0.014765982056173299,0.06083483239695812,0.017015053777744905,0.005521851085295967,0.059641740186150316,0.03016772294104737,-0.019358462675756964,-0.0344609132355698,0.1308731031766051,0.04809538201760064
UTS2,,,,,,,,,,,,,-0.0037629173485405026,0.09109112540069438,,,-0.04225048585024999,,,,,
BSG,-0.022372807390981,-0.0644250000193625,-0.06167635890386338,0.007247871328868271,-0.05652370249737125,0.041669677685668115,-0.03164048829672724,0.02548626312055338,-0.03255578780425742,-0.06305387431038281,-0.029669837726169154,0.009106272246424489,0.047765675951172606,0.20917142772481465,0.012410167813090359,0.1279092375718371,0.10744695826581728,0.06874577354474008,0.005577291115946797,0.1370207008336923,0.08035939281263939,0.10214796860553893
ADAMTS3,-0.03622077103692965,-0.06182074681402192,0.10318756123774803,0.012659524194044208,,0.037523141072625554,0.0032927297510270026,0.07458216544239356,-0.037136532255377434,-0.03728392478422545,0.026835621082529217,0.032993591149442655,0.06483538247775875,-0.12094192183475734,,-0.005798620652823785,0.010553748429553417,-0.007391428787628279,0.053621276878896444,-0.012511592589610017,-0.009040031501869076,0.049288596897683626
CD34,-0.0415241823433278,-0.005739678751210026,0.029713127568012757,-0.006900643757452485,-0.03778094429049667,0.057652899074869514,0.026288166807659566,-0.03605201263666645,-0.032415396852518166,0.0214695118923031,0.012302517600180156,0.0946702404525596,-0.013266385731994877,-0.11791930633812993,0.011068236361782021,0.1334376356001654,0.048222163276485125,0.0206004499715491,0.05038342717281632,0.05300081648734726,0.09994226797461724,0.023647383154525883
CCL23,,,,,,,,,,,,,0.08747443929997187,,,,,,,,,
PLAT,-0.014017560273774043,-0.057151080601216556,-0.0018774522227224173,0.047032065466533525,0.017086233086852923,-0.05676624182395934,-0.0075493196923786575,-0.009739442914461117,-0.005578029266134225,0.029683159641093852,-0.0022281041624792313,0.038206113084465046,-0.009056858243137228,-0.12468353226801597,0.01586558061725332,0.044807024755055706,0.004774182853859307,0.011379510745215333,0.006177947518453194,0.09349886892452008,0.06593078042099255,0.08855050573528969
NTF3,,,,,,,,,0.012104239499701444,,0.007253007437784306,,,,,,-0.005388581383237644,-0.02963022200373515,,-0.06397284931690936,,
LTA,,,,-0.016114409690185384,,-0.0035182925556040273,,0.05649920336259301,,,,0.017909004470088224,,,,,,,,,0.013606831877815362,
CKLF,0.04030980352641296,-0.029379188011545196,-0.016549765940000485,0.025814606184444106,0.025912611043109386,-0.0800395509646739,-0.01712391588629668,0.010666286448271728,0.007555159226186217,0.07958197594978864,0.02416404905320393,0.09689031307608273,0.0725609756518144,0.015815383876423367,-0.06003013534324045,-0.031077713090419883,0.11334186285942939,0.07718779518190194,-0.01432732147092717,0.060734993709280184,-0.052531791088414784,-0.04951451928467534
APELA,,,,,,,,,,,-0.0613637816256191,,,,,,,,,,,
CD24,-0.053789394539006705,-0.01985348224656667,0.0007982665112597198,-0.025220335351616125,-0.0036049500209672154,0.0674593629745757,-0.07219540465644367,-0.01856065205318352,-0.06428564117029432,0.09415473029098656,0.10545604015951901,-0.010516743474697785,0.14064380770512974,-0.19693747684749144,0.08727827858744576,0.17689525933664962,-0.039273145210832056,-0.012857480922174147,-0.01293021413418459,-0.09015218296848708,0.04166534346533294,0.01146019188575952
HSP90AA1,0.011834161929057457,0.04574141098004852,0.05249957925448365,0.011867800988765635,-0.0035853610564889047,-0.018891515029989658,-0.050335356994762964,0.003459229892745093,-0.02319833912650684,-0.15407071334548675,-0.04953868513330633,-0.011013647095315974,-0.11717579721755024,0.16526616406934752,-0.03847596736817339,-0.18794884028249775,-0.10191563080542626,-0.032580041511288904,-0.03795397906699218,0.00337166688106648,-0.07482730852552963,-0.06023141424272003
BMP4,0.01380643036825158,-0.03538994226229501,0.01934370064337685,0.05915285041347822,0.021435958755416165,0.059236639766999624,0.013260202616302662,0.041260308670669994,0.0033039536094785042,-0.04508793414486123,-0.04755004620712491,0.029816326983909174,0.03462896880271125,-0.12943400535090088,0.09190123950264709,0.06431130262881225,0.0507389072779081,0.08538415960694845,0.015268232289145405,-0.013022096154990132,0.09646330934273353,0.010536407477584258
SCGB3A1,,,-0.023355379216155603,,-0.030967570342409108,,0.027370895831164983,,-0.014614164134241589,0.0363248936483498,-0.009003906178136076,0.07939395385448256,0.002104100537723597,-0.05273816468547866,-0.06691236807841257,,0.07031796471978517,0.017687226885464136,,0.14050739995170689,0.041123950811983764,-0.036131378693255785
IGFBP4,-0.037402367285056574,-0.0006541608535038313,0.025658031297437572,0.04357156738511958,-0.024933810215410246,0.03259967932861861,0.13247081086113935,-0.05293059038515205,0.1077913306346105,0.10799949247120764,0.07329259946545967,0.07564554193940042,-0.022283142208562503,-0.09230287785191439,0.04255780534418365,0.1334002376492113,0.09559253463365548,0.04770301402536196,-0.04392521561581371,0.12330934582611996,0.14624741781261974,0.058258008817382634
RSPO4,,0.006348369696054001,,-0.013560685131508784,,0.0019016612352295884,0.005993658919729874,0.14559628399580196,0.023459072897367105,,,-0.04000349682582999,,,0.06108701070053426,,,,,0.0235358671813236,-0.0002519518543810892,-0.009777408448273704
LEFTY2,0.017068068816108267,-0.00950367176190549,-0.004320336220735441,-0.016312319158825785,0.15171552256814402,-0.004324560269669911,0.023808021756656188,-0.04469641160533949,0.05618027158238686,0.0014987255329324,-0.016800529130966288,-0.016512572698766294,0.013938496261226785,-0.14351376041123415,,-8.90217232110424e-05,0.05924390267130433,-0.011192618828224173,-0.0066901364611148635,-0.04895939186956774,0.02971234411611283,0.06270729562764908
PF4,,,-0.02422745685000894,-0.014658245790572594,,0.03184051610954054,,,,,,,,,,,,-0.07313059069700079,,,-0.10645970754884224,0.05224609247493906
ANGPTL2,-0.038008118185450517,0.029948546773278364,0.002878136739631898,0.015540810033724928,0.034176879730882084,-0.02350372038487054,-0.0011092379583936955,-0.05270339372517666,-0.017884531680604325,0.10337503854722624,-0.09772161297892923,0.08093966627561978,0.05670450075913309,-0.14076254956011694,0.01604994672695082,0.09935602506437419,0.03696566901646762,0.06420243179755725,0.05275693917419292,-0.019572735121379196,0.17038508877173286,0.1271334689509568
LRIG2,-0.018917160409773138,0.007168010165544114,0.0373476220266362,0.028462928361200387,0.04200121342327225,0.01322869257067453,-0.03397599074221163,-0.031064503622712843,-0.018697345704210524,-0.005301247438500141,0.06379751924250936,-0.04431767181486465,0.013623896725247537,0.033330197177584855,-0.06664298675278453,0.07531033801272374,-0.012498255044559623,0.09542476355023632,-0.021971633329508005,0.001376549362512177,0.0723391806892276,0.04944864262751488
ICOSLG,0.11071820676556808,0.09618912354446976,0.0992298903587604,0.02415209448151075,0.0209258587125861,0.030115063311680425,0.03709027766170112,-0.04016369612292736,0.005314735522680611,0.10003376222909659,-0.031876058757464194,0.04950556249535572,0.06602018981771936,0.13701231049906404,-0.03371144352988723,0.0546365146915245,0.13471459724580417,0.05783260649178424,0.014396365029284312,0.044235623748612674,0.1533912395740137,0.1390890288522483
WIF1,,-0.076793619336006,-0.043593376162851166,,-0.05974643072650406,,-0.0827019371985742,-0.014005706348325516,-0.027500827084572306,-0.054381288163184965,,-0.03757314265867388,,,,,,,,-0.05659141243670009,,0.00632292278030255
NPPC,-0.004069979544569765,0.016771166194243355,-0.0021376479909761305,,0.05131658390149479,0.011910802340676162,-0.01316262866881363,-0.027320682957906992,0.03780386485361887,-0.03109007139272383,,0.065048766549336,0.013670215501138568,-0.02127975741501379,0.11532685998512363,0.0968593126005285,0.06720528614799426,0.04567045210153784,0.05078639451632851,0.028614711900139325,,-0.007348658469415681
LYZ,-0.027262356683262066,0.1662022980587788,0.11473959489430724,0.004719954381936868,0.01999019141263143,0.04273122600722012,0.112506040368902,-0.025523634695355752,0.08798242111646665,0.11511228808824155,-0.00845458333794961,0.12622135806865598,0.11323846086004137,0.0030463257099675746,-0.03126499461421971,0.08421222701055196,0.026291128129337867,0.08650154059505338,0.03861632155179899,0.08305328880942103,0.17465135659101771,0.11021095906221116
EREG,,,,,-0.0035528815403532274,,0.0941545547145604,,,0.08262670601822424,-0.004978906331558947,,,,,,0.05281721616634921,0.08343886298578498,,-0.002035895124626798,0.07046414576487929,0.04912975546100751
SPTAN1,-0.017536694172700838,-0.11273757066301049,-0.04960487569291439,-0.012536137116244947,0.07930780464027633,-0.14072493644908574,-0.028607261480465378,0.011054785756484237,-0.06063727394721312,-0.0874536341316822,0.06646286898181347,-0.1569773807501455,-0.004505338460688722,-0.12548134760938043,-0.053641449078080244,0.05744373890760154,-0.0011390462029436644,-0.012453879932962741,-0.003563165115130103,-0.02843769102444096,-0.09681771244830747,-0.062112701172163526
PTH2,,,,,,,,,,,,,,,,,,,,0.006778656864891097,,
LIPC,0.04760101131658435,-0.06441366261579999,0.01619247378688537,0.022622963187488767,,-0.014427186740011986,0.02604749894311864,0.06280054713149276,,-0.014241327229731149,-0.020959862330419434,0.012959398178352387,-0.0512821837533314,0.01719736397516215,0.027159016011448593,0.09570060852421727,,,-0.03686872725603344,,0.08772082577589008,-0.004964506654839219
COL8A1,-0.05376729462654553,-0.04504538922351137,0.019853082873002744,0.01345054022671437,-0.01773239198238323,0.04988118027657314,0.016039919393825996,0.027915739703260483,0.022789047115159694,0.07266339877199822,-0.004079721530092842,0.054938528238345476,0.08216761281936552,-0.10083660111974266,0.056642700489601926,0.09268370733891323,0.07045771245563638,0.053132329662592986,-0.02898936122388095,0.08165159378696678,0.07594275102428785,0.03845402260641779
GSTM2,0.013408100361669175,-0.055160654807563936,0.005119361100331977,-0.032120002464922526,0.078570153304462,-0.012247965502974021,-0.016252683471268223,-0.04315173008323833,-0.04319472269293554,0.020097148434411863,0.015835036712451442,0.03132348346930229,-0.06019465025134563,0.057999717930573264,-0.015956311670480845,-0.012705055405130112,-0.04801499031272283,0.03808077976453482,0.02732857093521329,-0.050591955151133024,-0.0018452941792024558,0.06253763975216782
IL4,,,,,,,,,,,,,,0.007678191273430986,,,,,,,,
SPX,-0.03364446514408251,-0.04803910964598777,-0.008972102818257654,0.020595545977986733,,-0.010897348144045065,-0.0727448190106738,-0.004387468526842602,-0.051321324244874664,-0.02873677512869407,,-0.06951899659085373,-0.052417669018780845,,,-0.055677745306266714,0.016554913591811174,0.033348200037772766,-0.05314720168998045,-0.10758519755282911,-0.05430322504638196,-0.11616553312410807
MFGE8,0.004921586855288036,0.029477065921132008,0.02984346927190016,0.07735823849986938,0.0025038781626385937,0.01532788160101532,0.003862515904230683,0.017772787812491385,-0.002705517067668353,-0.008734831980455788,0.04156970456540691,0.08726669859291603,0.004645600158717449,-0.1110620102522479,0.028234260654334948,0.18250189950431284,0.00849250044795511,0.1479160634694648,-0.00925474370760737,0.05721684135216112,0.11391908438313456,0.11329227177570478
TGFA,-0.007493364311361535,0.05700968376339327,0.04800618323363173,0.012688044368529917,0.010251221387739385,0.04041549600596967,-0.03375748234425003,0.021672906863925628,-0.01802760150412218,0.02859521319886233,0.032697428204377446,0.03708263973824114,0.07481104131476717,0.10727037470072277,-0.03605687362212825,-0.013784254258115154,0.040596959843168974,0.04240940368610554,-0.00558428667593337,0.02879592716243772,0.12047327424914418,0.0066016190267827405
SLIT2,-0.02406589478958683,-0.08583901093516949,0.045594290428126,0.016253402185194603,-0.039831422942618024,-0.026909472566293873,0.00857324615271272,-0.0007461805324691725,-0.03370098004164141,-0.019438805681600325,-0.050927656271979364,-0.03348218579907457,-0.009985633982636579,0.038285087978916825,-0.00935604249349503,0.03999058451884728,0.07250965655879654,0.051864681199139354,-0.038012673799019465,0.07554529011108642,0.12812424791550076,0.11467158422332607
PLTP,-0.028930042241257,-0.07726560913021092,0.022066851035421765,-0.01803789145379479,0.03641736376765877,-0.01996235930935728,0.10843641648497306,-0.03543998893644214,0.013618337241420921,0.1607120929567421,0.05042484454901568,0.1135454355191283,-0.0032013396240823696,-0.026529564790326327,0.014966881083652066,0.17215036859965632,0.11136281272905531,0.15157198781281056,-0.004389884429757129,0.10774734810052226,0.020912944784897337,0.0657149053514833
APOD,0.07056794750032104,-0.05612804940216164,-0.07059032620639197,-0.05044597340344671,0.03323078948784596,-0.08280968590116443,-0.15403569916318507,-0.010278994627150914,0.04274673973013358,0.08482896946743289,-0.0046762720330428215,-0.12807373660049948,-0.1519598104290824,0.016950655947642716,-0.035166037493658875,-0.20192894162274963,0.019679592300957734,-0.045280565975087686,0.011789626035404874,0.030916996558163996,-0.08318967167146028,-0.10845522879573652
B2M,0.08890167208877417,0.032017913405489075,0.11456525384603486,0.014497498374547366,-0.03906162321480303,-0.024492527599292917,0.1669111199528807,-0.03338653847218671,0.07741015251015222,0.18125252108243772,0.01785445513295559,0.17902234102083667,0.1085271302704135,-0.06816035861296152,0.0026826828526982293,0.0584042052200554,0.20779204935844955,0.18125047598835606,0.036046926545446584,0.11737560335913073,0.1536137476600376,0.12894586474266398
OMG,-0.024110567183749546,-0.11536823964671146,-0.1040053494951941,-0.012408161420060185,0.006442166854644106,-0.11968235237821333,-0.152773996135152,-0.009237539537069276,0.029193047214956885,0.007994162557942613,0.069301048558614,-0.05186908258938207,0.03365401464386203,-0.10876968763388604,-0.006220876366184217,-0.1185665436547566,-0.0214714773836877,0.05490277716300826,0.015022784369091524,-0.06881635492819335,0.025529648086128863,-0.11127851042019193
CXCL3,-0.011774425335731975,0.10430041219170373,0.09319112268129294,0.012141404623513295,-0.04056884192541745,0.09682261407436535,0.07114038039850862,0.019793513018547686,-0.015634064243191793,-0.01790692286809741,0.060333129137724,0.09912006211620777,-0.04984114570257735,0.0515036620613966,,,0.05399704737089877,0.08485525255650093,-0.011388172529383863,0.043705175481142305,0.09205001481748372,0.10148779895286665
CXCL10,0.007642258203174935,0.015954999715347584,0.03480036300961056,0.016922363361491898,,0.059734621278850125,0.01940764328549225,-0.05516142039599935,0.1001215723259574,0.014476858236445216,0.04447698622219207,0.053078163090899355,0.07439728021096192,0.03540877307981753,0.02091149314517738,0.09286333645949094,0.004206566529197824,0.07818798416252598,0.03021024693272192,-0.06189364663588626,0.026113618418621982,0.03633434412024681
RSPO3,,,-0.031725315129397774,,0.0590412294341984,-0.030231195805128726,-0.005770438596460151,-0.016639890264642798,0.01635400896717426,-0.01630078636934918,,0.05766474951892917,,,,,0.02769734187594449,0.0503349178662661,,0.009197266740041286,0.009912016179784289,-0.04005694962542837
CORT,-0.03631437658105908,-0.05156560956321224,0.001132683450231743,0.025072762796777736,0.009166524553353294,0.0035200037973819693,0.005743221414239557,-0.01473650535254378,0.010406473934045255,-0.011939356863385287,,-0.057577706505916725,,,,,-0.020927417860124538,-0.01592839755218844,,-0.02232367929361793,,
NCAN,-0.0028156383189088265,-0.11286647325356494,-0.10754087075868136,-0.0022373545207479443,-0.054219361643482865,-0.14112579361212668,-0.1372699599045138,0.027507088099433485,-0.010663937395158127,-0.09771493908130066,,-0.07913226757641317,-0.15082414419779308,-0.1262994600521607,-0.10593691488788728,-0.07248184785308681,0.00014126632482491664,-0.04108610233351838,-0.004139704907875893,-0.16188319375284355,-0.11786950179841284,-0.07093625641972817
PRG4,,-0.017820031364858168,0.10507962824882269,,-0.016759141760062747,0.008120461760397555,0.06732904973194993,0.02610385747198789,,,,0.08485870532249291,,,,,0.045699274121660444,-0.03501108838518732,,0.048490238431015166,0.0917806936648288,0.04467185261565019
ZG16B,,,0.01964611055959644,-0.017638816424354678,,0.0014098185756781987,,-0.01239969260790987,,,0.023085431632089988,,,,,-0.060822970240572975,,,,,0.08791463191865054,-0.03395566996243752
TGM2,0.025823187165226698,-0.01354843800066194,0.09257842657446957,0.032513554379107835,-0.010819541879963111,-0.011686110347492567,0.10448127102029976,-0.03078384585981639,0.031211079969556355,0.023903543634860042,0.09207727742756855,-0.004357174781354547,-0.021149272074010107,0.3096130481983356,0.007603821171793886,0.04805883265754959,0.06750163383583188,0.10031119000571384,0.0030388596185736785,0.03782908710276819,0.1231879309400035,0.07712461462759795
VEGFC,0.01873584713019378,0.06309742964084131,-0.036750436204568374,-0.007926439767689674,0.04593715033365102,0.06845471745538403,-0.024889485563732713,0.10825411618513854,0.00759659416520329,0.023986915632072003,0.03400693967785822,0.1872287608828267,-0.04248033640119153,-0.024149728643107903,0.09347386168236999,0.07530412005781513,0.022144575208282273,0.02831896023569192,-0.009656220989017405,0.002458355494874423,0.059454306529409175,0.07757573344477171
WNT6,,0.0016805107392094411,-3.9026232602731986e-05,-0.0163123195869345,-0.04735553894909522,0.05204977438245058,0.01774452752862968,-0.02759507363125134,,,-0.02938187208731793,-0.022600481763396785,,0.014487621896174642,,-0.0269248700090491,-0.001424768361129511,0.039676742952708594,,0.008962626196721368,0.10500417416861359,0.00908319242605813
NRG4,,-0.035079096669036455,-0.021511126358964985,,-0.037578927393871704,-0.011705006262268895,-0.015679438709287334,-0.00041474950811390534,-0.05599152770716878,-0.06027581828428815,,-0.030210384521992817,,,-0.04425410267385569,,,,0.06024397381264423,0.028947774581018125,0.007092985768811373,0.006060499010157095
PMCH,,,0.003502428918821413,,,-0.02439866450365644,,-0.018149715641832827,,,,,,,,,0.0967651114969697,0.05745202554676539,,-0.02810958786874019,0.07081886968373206,-0.002885892255425855
COL9A1,-0.030592687130952773,-0.05701146946638312,0.04305720509583949,-0.022705541999448804,0.07006447248449249,0.1189697003612,-0.03892183278680431,-0.024857749436417453,0.05445034700469858,-0.04721667931123029,,-0.03442401495826508,-0.0007935049210946947,0.013439336632104594,0.12272029065067877,0.007064285655348535,0.03374925418121742,0.03884858044295883,-0.003147455291528605,-0.04501737767380376,-0.021824322593343458,0.09732910997955464
GDF11,0.017721765802155093,-0.003906343700411107,-0.049338850238022244,0.03136974986646349,0.004157752854614698,-0.02293737488254862,-0.06978774414447007,-0.024200424965218917,0.030281872349463876,0.09637695570452084,0.0377485790523768,-0.009566924413210887,0.03383871273388002,0.002698569286373819,-0.00941936224662384,-0.01407036758267899,-0.019492775138086643,-0.011622132357139254,0.015429449442780997,-0.021572156207309005,0.10345232049667834,0.07037076683574753
RAET1E,,,,,,,,,,,,,,,,,,,,,0.03549059773485196,
IL24,,,,,,,,,,,0.001827293677614327,,,,,,0.02410585505851599,0.017597352922330233,,,,0.06260083861740291
SORBS1,-0.00895389889754739,-0.09354234656684447,-0.03251337587176067,0.020780279886971276,0.024657006117901913,-0.07007385862463365,-0.042277812801554286,-0.008759204197167579,-0.00609233879047124,0.025980222564102075,-0.03312727309335084,-0.06346957391812373,-0.07442203225675995,-0.16219118318402567,0.029425079692365817,0.05310678346748889,-0.013656654865865798,0.01924636318720449,-0.03563402094424191,0.07618322519803056,-0.023333904373424395,0.015221953946331168
DLL1,-0.0020483765445372805,-0.02910659004408287,-0.04240759962364734,-0.00476110537755773,-0.0550041373086951,-0.041891219613893374,-0.07434179274006902,0.0728333732113544,0.02505167146088034,0.005553115702638317,-0.025589683077607932,-0.042392736105636326,0.07537236281591667,-0.04127985347094673,-0.010750445288018618,0.08944625848906564,0.04422464581803523,0.008493678188371594,-0.013748707936128597,-0.03794683711015498,0.12959091349632348,0.09307997738011323
TLN1,-0.010638338675762419,-0.001007096339585863,0.08065265509350479,-0.03180056978422929,-0.04508872154534852,-0.06829073738932366,0.02783979564554182,-0.01826901518876671,0.04327555912903977,0.06660285022872084,0.10089162604195986,0.04480088122987026,0.05860321506448459,-0.0058121890168728926,0.04724073935142126,0.10351795781797395,0.0552224885480524,0.03386396689112224,0.07897647657793805,0.0709931981091089,0.12109242204806393,0.1380250606083182
COL2A1,0.03939814296649097,-0.021810794753242536,-0.028850361656066498,,,,0.02929873619071592,,,,,-0.02108471777632376,,,,,0.05303433551243616,0.11060863958741554,,0.06432510400408434,0.050642924873824324,0.056419813692867
SHH,,,,,,0.10293868101980766,0.1395663890464777,0.008390941760140937,0.0005646628520623849,,,-0.020123100652165257,0.15147089169396297,0.2189087801139537,,,-0.030291013725702837,-0.006339360686652133,-0.007000072533133065,0.01894966463433723,0.029856881746442403,0.10386167338438873
PON2,-0.07314466021116223,-0.17292986093466858,-0.10564964259799411,-0.011739137459102366,0.022883363634374907,-0.19735064876654226,-0.11204406246627699,0.015329162926414645,-0.004938969232493704,0.10503152987441348,0.01951786159176992,0.007998165058280765,0.07201182249788857,-0.15743007923841343,-0.03397527934238453,-0.06929718924617617,0.10310048857727847,0.06557329810093869,-0.04763023438484792,-0.005967419219363643,-0.14483413560869818,-0.04521744576507709
ICAM5,,-0.08412893819608182,-0.040965749034788064,-0.020997618790462518,-0.03318992818571475,-0.015774545944096784,-0.03385044932338966,0.042798000295698205,0.046245708635837775,-0.027189223275274274,-0.012538833100307052,0.02281938271239937,,,,,0.010001848528880768,0.10444549286196289,,0.052700722413054776,0.08525695136498791,0.008684953171325074
HPX,-0.014634211854523774,-0.021223991650376393,0.012132504348523206,,0.03700517193063294,0.017461224117867682,0.02207023111229287,0.01039878972216735,-0.014614162644362752,,0.010924052119916504,0.052068451696236084,0.010505221794879258,0.04523819304534324,0.031496621663880064,-0.055034477372166234,0.06443813183450163,0.017544366787910954,0.11246478602311304,0.019095034322443086,0.06783157405914593,0.05354255749636292
SFRP2,,-0.06360094522417842,0.055615969233978095,,,0.01673174292769254,,-0.020280487892916695,-0.0230854152336597,0.1061153208787183,0.04679832087741746,0.1281296260090186,0.033334004275002556,0.014328681583550374,,0.025851380365921706,0.13286749907961548,0.08005769995385205,-0.058182680180018896,0.10891210955764453,0.1365041392886377,0.07332597856381011
CFC1,,,,,,,,-0.015605131211029154,,-0.04918298860878804,,,,,,,,,,,,-0.06466669440097601
CD70,,,0.11703532845235694,,,0.1489945681481601,,-0.02910903356811754,,,0.01640643549340743,,,,0.06697473131873187,,0.039513484727624885,0.14168021419299068,,0.09300500833343861,0.03230151115616586,0.05143153515627147
HP,0.02270968902438762,-0.0850505396227529,-0.010384390620971655,,-0.01573672828405004,-0.015443022826548641,0.19131508637668337,-0.049552821737439405,0.028230497737102865,0.14444489898051596,,-0.05555365635820911,0.06489481931491393,-0.006443595899939556,-0.06894491734508826,0.07872699612791666,0.14615041087489605,0.06137419056330518,-0.03876384634663789,0.04612782128364993,0.006127486658754378,0.07287877878768455
CXCL2,-0.014561313585672446,0.0860024810839111,-0.0694595957882153,-0.0005458493860626774,-0.008318040717103164,0.08181456706393632,0.02718631546082912,-0.0023856802631319557,0.007506858754627471,0.04782907578249823,0.029727608902446988,-0.0051737928443739015,0.0651318074529479,0.07312733092055995,0.0034929330402105004,,0.0834123242234685,0.13578614429463906,0.07157479147713845,0.08940932323983464,0.061403518706946415,0.11806164895154903
NPPB,,,0.0655919254303837,,0.009202890860227544,0.09187438660731931,,-0.013664487528588601,,,,-0.025895727614397332,,,,,0.07373436027074641,0.021509082577159215,,0.04377521391349214,0.1065701327460354,
CCK,0.043150423351116164,-0.06953501510174726,-0.08072472962724218,0.0065403443123137435,0.0008007739542779395,-0.029460153840383127,-0.11569041697185614,0.022676047937435523,0.01705871695203957,-0.08250204645291348,,-0.09939663030862961,0.13823007542183066,,,0.08063433197313657,-0.030756719722444283,0.006093195316163722,-0.01144394266092505,-0.1057152655625396,0.046885837986227766,-0.15883745122857604
SEMA6A,-0.043903059520048054,-0.03568226689395932,-0.0922339127735883,0.018271379677684132,-0.006219576446647586,-0.04544838435761569,-0.05444686206344436,0.017254707994469022,0.048210157847804476,0.08198787075535734,-0.04205792455200783,0.02929380034505842,0.006089265887739037,-0.06043168834827224,0.036598309542955704,-0.07202254992779099,0.003923724962892545,-0.013995209418519202,0.08743692219408468,-0.041575927049046085,-0.08697943122182328,0.057955443028756694
IRAK4,-0.03656308911791547,0.023254139072589632,-0.020073539213072457,-0.015774216455380397,-0.022980516040365075,-0.002812920097802168,0.06430823127895298,-0.011914584112308595,0.013310922018118402,0.005506658130723692,0.0902660895284556,0.05302053008218516,-0.017535125428793645,-0.007688653083907509,-0.03425080858990626,0.0779949548698376,0.033648858634525755,0.03985756523385063,0.005159551684918146,0.051421705543022764,0.13921117385181553,0.07919173668200112
GSTP1,0.043264309096174416,-0.013813821853379626,-0.06795523257931584,0.028802763141310517,-0.012323955482422403,0.01924440145101518,0.010284750514672626,0.013920843876158384,-0.018679099990584754,0.1068456320660985,0.041398300323034445,0.02513005796953955,0.07551661606229663,0.013607225117434946,-0.11410360237737328,-0.06756250951090395,0.07796529960966948,0.10110115015421975,0.004637636078903661,-0.02753991538369699,-0.03901992392822601,0.06205663867925407
VCAM1,0.0524510727671802,0.0702272021188955,0.01299738086891447,-0.03182240906076755,-0.02384179454058386,-0.03653501856121667,0.07492889214869371,0.005718385275616253,0.023997264795296475,0.06251612479227579,0.012283214024585841,0.01636710879366756,-0.030611559318372967,0.1342888731347849,0.04971939063825479,0.05703636900199746,0.0193620455347148,0.059655208146459617,0.10175179506647734,0.03816339448674148,0.10388981537133016,0.10327320360401279
NXPH3,-0.010164038027468299,0.047187848021616775,-0.0005230550177399678,0.0030075156104347736,-0.03861665362781623,0.007574792062100707,-0.0021841593382456452,-0.0035056732781455534,0.007013424806789047,-0.07032895309361137,-0.004488741902414197,-0.015566972149781809,0.02856836930870547,-0.024749026343872497,-0.018262798285705765,0.07948842423589873,0.06736824700197717,0.06229078132850226,-0.055404594201876115,0.030018255983687195,-0.05417689839806699,-0.005612471168339005
MTMR4,0.0421517642737625,0.03488890773998841,-0.05004161877814003,0.025048888795012377,-0.04397105273022619,0.0216341787302996,-0.03594348036701226,-0.037857523609962515,-0.012341213323897652,-0.006944389163040319,0.05963166967235927,-0.016995253940907507,0.04367058334876947,0.05753464487400344,0.026180863997093445,0.07015174172463938,-0.01402399600167708,0.09214016745204459,-0.01392821229709286,0.048315097252748435,0.0709651588577656,0.11575444877525813
LAMC2,,-0.043583333581042286,0.02251362519998389,,,0.14089868518105558,,-0.017202065331075277,,,0.005827295953555934,,,,0.09346011661211853,,0.002811958831252018,-0.019730104094014912,-0.02926321769427307,-0.028024086100582792,0.08485103688124483,0.01772259100395008
IL10,0.04130883513871473,-0.010380728707464239,0.04323224038070267,0.004761196758402532,0.029717235585105407,0.04481109182484732,0.0839593251405033,-0.053784959048561204,,0.06175246556866437,-0.0028460235761414757,0.09444072093457642,0.05373919134602037,0.044622090042905425,-0.04096776254024111,0.11395329779807416,0.011985024420767262,0.0007376877748961327,-0.010826277998773656,0.04650701559966795,0.10046671452467842,0.09898075602443952
SEMA4D,-0.033109258292718144,-0.03477826146623666,0.04640357293917732,-0.015070022726178661,0.11852031801929681,-0.07474351621980514,-0.022467350518518173,-0.004061617946333313,-0.01879563840050865,0.074959360467635,-0.006638937297354188,-0.049191290429828755,-0.0074284539688081914,0.032830804663614384,-0.006165229276612733,-0.0493565321993075,-0.037283084625608365,0.018684825720105623,-0.017913057787648776,-0.08978034522595653,0.06411483287579021,0.04256972800421053
TRH,0.06834595003104406,0.027847824379751737,0.013642178072758412,,0.07325461291279084,0.032072898649175355,-0.02993015797516757,-0.012078054419926125,,0.03610749455167118,,0.18873604942625496,0.03183638974151781,-0.050256398183254995,,,0.031112432547997962,0.05844790243992859,0.05560735064069525,0.06635917565780922,0.10928861789246791,0.18768324546236836
SEMA6D,0.01651998417494125,-0.13898870973570224,-0.03887801649067587,0.02562327632119987,-0.010500973671764198,-0.07708663749030918,-0.05106042952982581,-0.006087005798977384,0.012590679922294233,-0.013143523114063959,-0.027766738180830364,0.009766934554837388,0.06478050018226675,-0.12447380186318269,-0.04669367886844176,0.015833265991754764,0.049111258170048175,0.07342566348059233,0.031096443054224033,0.0013685416005622434,-0.09952211263594637,0.08432645268929773
CEL,,,,,-0.030380309708467394,,-0.038239662076630876,,,,,,,0.02890348283360405,0.02889666162056652,-0.003698724083116117,-0.003232225213222196,0.03749484985644747,0.018369836617438108,0.02157231380912718,0.06594679370243027,0.01181655061348582
PDCD1LG2,-0.007962006327945453,0.004823572950462868,-0.004738109162548869,-0.03334971130424235,0.0523577235510269,-0.04309182694031657,0.06433404334506361,-0.00741529274037824,0.0164132106732183,0.08032129487463187,0.049220884315149045,0.015056352690931227,0.021119047993044326,-0.0015210982507590169,-0.05235412539878768,0.15479468218715914,0.025746064762680397,0.07777969461915697,0.026230410107174848,0.011377426529409403,0.15946442590364238,0.04990150089728693
SPINT1,0.00220446644379534,0.017651396348728393,0.14011934063135015,-0.02084893228104968,0.03508094798780056,-0.017662221296646106,-0.03371160380381885,-0.010414456323949483,0.023101639102884406,-0.059254987021643606,0.012309559059109909,0.045737179447633496,-0.00466056945946169,0.05848912199612034,0.006119909189229233,0.03553751586915938,0.012707437522270007,0.06365937051019929,0.1233279169547524,0.014517283114128103,0.11605479914424109,0.0529576000296743
CTHRC1,-0.01632436995920481,0.0030949373027447584,0.04918788004481676,-0.011470877967549661,0.006969920543136294,0.014298710346183368,0.04922959256493988,-0.05812107684618795,0.04605735315713326,-0.016215100930026653,-0.04271102391769209,0.13297869403821944,0.0964892857550344,-0.09367064833840041,0.0009102344059479664,0.1451764536292986,0.0847206505633021,0.062447524439311224,-0.012493967818799167,0.0629938828230868,0.17537978557496095,0.08168118410893081
PODXL,-0.03424056151149536,-0.1197138279877092,0.009140191859370905,-0.008242784963416065,0.02171899700944046,-0.0907466681324068,0.08191673451085033,0.017366936170049897,0.07876936049313385,0.027360799651594866,0.03195184043482413,0.016646302546777583,0.09873207791933095,-0.1677919071211708,0.05456258141250959,0.13401112304255297,0.0823997923257018,0.1087939640808071,-0.04150154694373551,0.012689126757207313,0.029207722756509038,0.13996670481430526
JAM3,0.048483399602198746,-0.09211418701602665,0.04043971620208296,0.006850683080616983,0.01715000111998643,-0.009049301333455918,0.04135579848787553,-0.025776901268099044,-0.026989288671487338,0.12969961016246104,0.0226180663356729,-0.01375910632793934,0.015409562126877115,-0.001558755650293879,-0.017789801147842826,-0.05602605642709142,0.11451046104018052,0.023623964712868182,-0.0006708645522152206,0.09168828258423582,0.018955701902678923,0.10344404921433989
TGFB2,0.015739538494183778,-0.07326088374042743,0.03186133633242136,0.04293667427381339,0.011089091564324366,-0.006108614701541468,-0.001474720041648317,-0.012062031152598561,-0.02183149054289913,0.018982340461573852,0.024658256738592635,-0.04496185156644278,0.05917480741228605,-0.14989535630259734,-0.16905850764485442,0.09812796895113646,0.06141193197457801,0.027455920772061878,0.032799215129368314,-0.06056610100269224,-0.03687737486608829,-0.03912045206684921
COL18A1,-0.03716171425598718,-0.09297128237949367,0.039402882577529864,-0.014519164711656238,0.06081740065290591,-0.004485704088693651,0.05004757931290934,-0.05706658539689308,0.051077802082216905,0.10199944092504526,0.07778747109791105,0.07314728028491559,-0.05633622822913426,-0.11439173153049881,0.0214070715214967,0.1476957660184858,0.023339653965127095,0.10124089834158598,-0.028491721434977853,0.12177628209608697,0.10562997448368315,0.08721755463192543
NODAL,-0.0058506367611980805,,0.03899428314781849,-0.015711498691479035,,-0.028733111239681308,0.05037459605134277,,,,,0.040549060486236514,-0.0088354234863316,-0.0259744543475567,0.021218615463388123,0.09665180522853423,0.032628208134411925,-0.0074965458602222765,-0.04402127300373835,-0.02055093185226343,0.0007959124891406059,-0.014832626723184224
INHBB,0.03847544485449368,0.12731782119903184,-0.028662274717354812,-0.018905320115822154,-0.014538535918714318,0.0333683270950868,0.04598821723358009,0.03396266882179864,0.026238569876884187,0.03992669617756709,0.045700413550703145,-0.0030759756350141145,0.0034661488289316968,0.16362030242678957,-0.00302764034120093,0.12115504975630495,0.022151440626901903,0.08374212133740315,0.021615387471521866,0.12042434990580297,0.02896117032197284,0.1217757599252269
LCN1,,,0.10659404347267461,,,,,,,,,,0.012089723062139969,,,,-0.024996271844509848,0.03175721444286552,,,0.06595629581924901,-0.03762055490525445
ARF4,-0.041281023202188814,-0.017801795464463716,0.08885018464436505,0.03268881418598757,0.032747744588148324,0.10423135815698639,0.03909479877702334,-0.07127354699332462,-0.05217883832647958,0.061868818863424956,0.012325807417918815,0.05403405975684124,0.06274872229527165,-0.08565195595175099,0.05544558516000864,0.2635449054503634,-0.04007596461946464,0.030655145033738257,0.01467578552133917,0.013056300388261754,0.12286883702596404,0.0737326058104932
CXCL14,-0.017233292614710065,-0.033083441467356194,0.03120757283639091,0.004330733015256126,-0.04112013963324713,0.010658328638829455,-0.03018444026884226,-0.004793361779196218,0.005118743841855319,0.012632448029392316,0.014272003107876687,0.0011282254241239973,0.1121107244351031,-0.1773706218765219,0.05159133739416426,0.13978642597532437,0.046018502119460285,0.04061613748661495,0.001538114741140168,0.02971867536589309,-0.05813494395430961,-0.053181683702723546
LIF,-0.004025380037408479,0.11429211646365273,0.04778112836507596,-0.019882000304123088,-0.03854338302020707,0.09544842843817976,0.10542385554251035,0.009687080282597767,0.04766582516282536,0.04745895964790307,0.03840784322605156,0.015100752574770863,0.11715118441520332,0.17192775305598867,-0.01495170714736856,0.1379138708741926,0.0024528524423103387,-0.014285529853343847,0.05056049640922127,0.06441003533419998,0.08419281723731349,0.1723209516857762
IL17B,,-0.02845563000020854,,,-0.038720448443425017,,,,,,0.014778648977567288,,-0.039754829439077294,0.009472429175208635,0.07107710841962775,,0.003239245110335761,0.07131851122056806,,0.033087952179548075,0.06711559714926216,-0.0385818642283577
MMP1,,,0.05130894096280713,,-0.03885559103408344,,-0.029930151445989935,,,,-0.0452009591082223,,0.11411270843539022,0.010171000239006647,,,0.035963471870027956,0.05695467048275075,,0.047560478591977054,0.13318452050939303,0.13527409391790043
MATN1,,-0.010646815147215527,0.026165062194160715,,0.015225329122598332,,,0.006288650662058124,,,0.07922479122906333,-0.021084715152431523,,,0.0121435235592561,,-0.022138960218191697,0.020909215253885637,-0.029601158885574234,-0.011776264901481535,0.09556903048141578,0.025457623333406162
ADAM28,-0.033932506849427745,0.09924226191265574,0.111575257708832,-0.03193394937170985,0.10287916769587341,-0.07332861760564241,0.09874210772495498,-0.018657232928596026,0.013998337794191943,0.16358479464722117,0.06286939060807539,0.06801936786470568,0.04006811077268903,-0.012483181089477694,0.011063286843772236,0.014312533335945071,0.05554472473991626,0.07297542754345407,-0.017582004112736655,-0.02482558231352957,0.19440351703526024,0.060943014165404735
TCN2,-0.05352906180241492,-0.048386918619582914,0.004656225217574608,0.03607479550839516,0.03167385294076756,-0.051399400100861824,0.027604902647262695,-0.006655407921556412,0.0703880743257695,0.08816316036362144,-0.002763321275759374,0.05074186611594053,0.057900093309095076,-0.07330124380216609,-0.034738817997805864,0.047699640076528875,0.06717941164763833,0.0695524216436455,0.012753137250240196,0.03905264342853202,0.08407421337679055,-0.011909055045320305
THPO,,,-0.005969841417820416,,,-0.018731378193625418,,-0.02840491905870837,0.029262284021426634,-0.015449545736501936,,-0.021084717574485864,,-0.03418422722538062,-0.0012761497501518437,0.061752757387865724,,,,0.0030588895143372477,0.04631214095922275,0.02996848788599149
CUBN,-0.06435067663906575,-0.01791821950286848,0.033946400440337865,-0.0007028853202744576,0.026792096894275884,-0.018283991273623228,-0.028346740109918146,-0.04414281802767264,0.004391109448869315,0.008444733442060825,0.03950993016029002,0.05969094100322222,0.049543058293405544,0.002786577353431246,0.005239484090675512,0.1285400604665729,0.03570527451473499,0.03490655778992482,0.0014213032174509638,0.0769106387918923,0.043805335085384846,0.014827779544200339
TIMP3,-0.04513970896991878,-0.0517142242346669,-0.04879124826394179,-0.029264306469688743,0.00519831253109174,0.0014062930371606254,-0.046578471558078,0.005776221248551297,0.00343959871952641,-0.07363209122126518,0.03647271998011282,-0.04004788260217694,-0.061986473119704365,-0.11559952842962622,0.005153439594618611,0.13688134769859772,0.020991008061507832,-0.030035892557916014,-0.026402050434776312,0.050193228117389396,0.10935828822275671,0.09981783391009218
PIGF,0.01706256300403398,-0.04281116647121379,-0.07495669801252824,0.020071725568731137,0.10521052250272886,-0.0738311509641336,-0.04588597450357701,-0.049872816935264214,0.031931767271785795,-0.012572603762061292,0.01688103923606623,0.058980134263878665,-0.014876214802939016,-0.10206754678514596,0.04359647584216032,0.052546396480586476,0.0959465289473953,0.03220442365907815,-0.00439015875965516,-0.02916850885225871,0.06558812712971952,0.02136582422304812
CRH,,,-0.027708150994060796,0.04766511823877624,,-0.02621435653791811,-0.030414489379118653,-0.008774435489615562,0.011220097469205438,-0.015055488031241075,,-0.028838462948568,,,,,-0.003369446004671141,0.030794177475073986,0.047671737991886384,0.010578560762249008,0.021532722329755123,-0.00326519913087399
BDNF,,-0.07435128128240182,0.010424905694025627,-0.017638813062245587,0.037190172524258734,-0.05679465353389208,-0.006547022008080126,0.047557217979681626,-0.009848879061462172,-0.021891341468915568,0.011063928372854583,-0.023746807324690068,0.1295018374891773,-0.013447690708795302,,,0.05112607416102114,-0.015363784288708058,0.04251472942168163,0.10210688612952253,0.06521769679949564,0.14474859112376884
CCL5,0.029667153942217445,0.04274651613954569,0.023358018000833276,0.04379438026243483,,0.06455813894005533,0.07209535040314721,0.01851512374394327,0.09462463681803386,0.11565375033003754,0.06858355671826277,0.07900158051117204,0.037169631122947924,-0.07432551104990542,-0.03406007169125256,0.0667330472871018,0.057390427655734697,0.0295298552587933,-0.03291954116823557,0.06595448746116224,0.19657407925381712,0.02024890506219017
GAD1,-0.03155034753321142,-0.09536229389526474,-0.026838286125195805,0.03786793381612477,0.005090708456736776,-0.08193412335304691,-0.08763864521404706,-0.019131340086009446,-0.005369154644010784,-0.10983680274237553,0.005791334399109223,-0.06471190923251535,-0.02665730128980772,-0.02407691347329426,-0.007468972201104347,0.06490007416833399,0.05958187362363043,0.09188932145948221,-0.035891776384502305,0.03688159708729047,-0.022995618755199503,-0.11585156953417122
COL14A1,-0.0411421365263344,-0.06549475094593996,-0.018831194232466153,0.05955864727567731,-0.008418156414997807,0.009319125528254825,0.0894538329529093,-0.011207910175836769,-0.011180214022108349,0.06675666870258795,-0.11928217894132907,-0.01866624461516464,0.08809842639389819,0.030494731650773616,-0.027781120131365196,0.05552276733690932,0.042521369115062074,0.044544788892804936,0.014261346278289342,0.11944591782150574,0.2092373646939969,0.12251755466899525
HLA-A,0.08014795391041799,-0.06820059129551259,0.12810599267860506,0.023981764422041106,0.0390686148204165,0.10093047947966254,0.14478669300834296,-0.03698322921788663,0.09719869235208971,0.16800934383183594,0.054350486012782556,0.14990662292414464,-0.006431552691867447,0.02033068994858658,0.017882864772197284,0.20463828140889556,0.10031651329893965,0.10497168753649254,-0.011616452191466715,0.14354407279009618,0.1602257291895657,0.15515657282217474
CD5L,0.007731469524507063,,-0.02770814778843878,-0.001186795640690931,,,,,,0.11229556006311421,,,,,,0.06779471452643847,,,,,,
FGF18,,,-0.02507086566641987,,-0.03872040520385021,0.004382454466514674,0.05277018123681823,-0.014825929225314852,,,-0.009228494785370016,,,,,,0.07759566762068254,0.11164535079007726,,-0.044650569659214684,0.06363852905619265,0.028597056759015155
ADM,-0.001253861610903489,0.1152550745675675,0.06465405396757481,0.042842675908478546,0.021741443287353966,0.1530555727806452,0.13268689255133462,0.01703011254262123,-0.008641341965846799,-0.05146510873457588,0.03919654550344555,0.12099968335284976,0.018528761352254345,0.32391146012098343,0.03703193956568407,0.23863837687041745,0.05509360518423559,0.026648685067439982,0.049204380849186186,0.13773672207902177,0.09258103641034358,0.14514899289655578
CCL15,,,0.05748096360400985,,,,,,-0.02683779857004627,,,,-0.01900360199867602,,,,,,,,0.04052349756049355,
GNAI2,0.058982441175353985,-0.09289328029135159,-0.0008992850582552986,0.0007759946267406222,-0.02619503643302538,-0.0642247535086252,0.05931114913370842,-0.01279109472193346,0.05014167154499897,0.13348804089549401,-0.027231680898105504,0.04692828927574639,-0.07473260128728197,0.12127102577705254,0.04005638420019138,0.04758702111068128,-0.01171568097754473,-0.00234323085493421,-0.015413433537571427,0.08775749013090783,0.11798994575366017,0.07987193354365837
HDC,,,,,,,,,-0.021947682239738826,,,,,,0.053990722041683335,,,,,,-0.017786797484889365,-0.02128941428920895
COL11A1,-0.0066578544167954145,,0.01065425621873761,0.03183062293466967,0.026600317214829545,0.029107191500712976,0.010336573813785102,-0.017884063886620363,-0.014126997593508031,-0.01481752843140834,0.009944236689870944,0.1400258154143315,0.09882106806370963,0.055553635425675964,,0.05056856579887813,0.07447290810282811,0.06987201441220058,-0.020528569074569857,0.049838236019384335,-0.03465068261760628,0.12337242291106218
NUCB2,-0.027156490231464412,0.093350247915321,0.08607091825014025,-0.03389518086088065,-0.01687724334411992,0.01825803325427707,0.03242278981147117,-0.054414005274605305,0.013330815921627416,-0.018095580306601567,0.007941047382883776,0.0891719454645884,0.07802221624792248,0.009606891317844295,-0.04132874067769104,0.06791432550464316,0.08538448310257288,0.019978633091942224,-0.05104174486803478,-7.420377803348366e-05,0.0594598061723388,0.10617132759233856
FGF16,,,,,,,,,,,,,,,,,,,,,,0.11261958237514186
CXCL1,,0.12006532223091258,-0.029262156695552672,-0.005497367171269768,0.016868695168939626,0.04068871880272142,0.06699770915252543,-0.021661292872376964,-0.016406268647599125,0.043911227175252636,0.018883927774470715,-0.016667821193011717,-0.05337845870502616,0.036899243707182214,-0.028658737196129144,,0.014340793386752364,0.05441694755839609,0.04717959260912809,0.05449289902760413,0.08909788756159805,0.03672124840201281
VCAN,-0.041284610550265395,0.0521731223604005,-0.05819667504440341,-0.0001051009875990293,0.01268888866590371,-0.11625745961643166,-0.08657201940463298,-0.043164572602353464,-0.05342686454172064,0.01228361767005523,0.027741287281095785,-0.0023775436985138663,-0.12462063877520548,-0.20306378660135707,0.03229738809261579,-0.16523346697827282,-0.06343908492899912,-0.009679701673195549,-0.04719773828434424,0.03250148045181512,0.06875040489779663,0.22814427730430575
MMP7,,0.03227715395822825,0.007585117854131909,,,0.019172127519666446,,-0.013664487453930932,-0.021961275237826167,0.07618647495320001,-0.043354388623540026,0.04205288639333215,0.14756622614994314,0.006984190606364033,,,0.13837840396420717,0.12279603650139759,,0.11546063058785304,0.1382814500223126,0.15648127133035306
PTPN6,-0.04852235605902598,-0.0011959461836972267,0.04192196808573031,0.06998118560747164,0.03782681552879941,-0.017789425505239508,0.03147641998959808,-0.06221303782603688,0.1016085621917739,0.05734202157344418,0.03888623403068197,0.10995072175720041,0.07394264116566848,0.11112623449064588,0.014416732344018746,0.10825246551102946,0.03874397915224935,0.08339752661791028,-0.03515880277459123,0.04182222872989156,0.1406136142753795,0.0757014797327282
PTGS2,0.08318012842690277,0.026388599227939426,0.1596080015140206,-0.0015467060741707367,0.027770157926793045,0.08758449987120649,0.12321143096184689,-0.015204976379462217,0.03207264748217853,0.0017237764060905904,0.029235940993569173,0.03774768287912686,-0.04576066818425416,0.10750370203092321,-0.00842449483996821,0.04736970343224617,0.013543038869941234,0.033890938607133866,0.0924667827440373,0.026845414170566937,0.13358982014035534,0.03138295710309307
XCL1,-0.01735896990393316,,0.004635778203482313,,,0.06162693424783495,0.12921934869629842,-0.022443409366157418,,0.058596541343263635,0.016002284310356146,,,,,,,,,,,0.06322015730478564
CD58,-0.013166729754702093,0.037771136317661394,-0.02883229931609676,-0.03273476056005011,0.006806886124555744,0.0369037015450603,0.02007837395454854,-0.012711770505516593,-0.015800186254070286,0.10170288895734622,0.021695103524499534,0.10343752518139011,0.06391378545707256,-0.021523421104454182,0.006996579084822607,0.10018660662393952,0.09901637891978186,0.050765947591086776,-0.0245654759862577,0.050576484384701324,0.08586658447938231,0.09294804203515616
TNFSF14,0.04659323537667145,0.025478512949031373,-0.030594028054897967,-0.022061443436116098,0.009443662293878493,-0.011596640351365192,8.788910008086562e-05,-0.02107359979765108,0.1792758346151775,0.056320515680315916,,,-0.04041283795816435,-0.06533880446769184,,-0.023417905565511214,-0.03783993212640088,0.05538245604396963,0.03652477191944538,0.02070007402631579,0.034600551769356364,0.005352078829657543
CNTN4,,-0.03136988344418033,0.021099743142565366,-0.017269627545337694,-0.008755691069091043,-0.03739195428669737,-0.05950813693239153,-0.029980797466934123,-0.0114421093218013,-0.08484887569097908,,-0.04460528557472781,0.04396188613477422,,,0.06404209537966221,-0.03568327022048378,-0.012281675020455182,-0.03714716474364366,0.03814200497595273,0.0342902635076721,0.04449962152195319
NTF4,,,,,,-0.004312585542248836,,,,,,,,,,,,,,,,
INSL3,,,0.13576223678608357,,,-0.01658780126511523,,-0.01575659120613812,,,,,,,,,-0.028401058561265718,-0.0019566458020110833,,0.01054999218205611,0.05113025779352971,
BTLA,,,,,,-0.030066098332226687,0.07061381598355763,,-0.020463971686605093,,,,,,,0.08862120462048433,,,,,0.013276431771240205,
MFNG,0.031174344943708118,-0.00297193404404405,0.001129798454912316,0.018153659695739593,0.037140383732937016,0.026971304598175382,0.05438889655080513,0.010716335736997786,0.05801100556435382,0.024651364667931993,-0.0179764449395453,0.11647547671746014,0.04182250400695709,-0.09319648079523733,0.03230942346056538,0.07966627292471547,0.05908255168255942,0.06474225069237695,-0.006755409456689772,-0.00665505118533727,0.1160918434296717,0.03500113405522674
ICAM1,-0.03447245031821225,0.10303017737839172,0.08027712174455871,0.007247563794321456,-0.010837934443364002,0.0683359900788762,0.14163827347633445,-0.06525488718834987,0.01511817881203971,0.17874459803328344,0.07076894408346747,0.20227779445604502,0.09276603719652776,0.25493680925005063,-0.06534313795533922,0.11412962270346312,0.037947167378274825,0.06414725832544661,-0.008305740597610673,0.07924276103464353,0.16203891205516874,0.14167588480970372
PROS1,-0.05506179481511059,-0.0354902521823149,0.08609857295220782,0.0345539531691449,-0.015623892442642865,0.00507162928452282,0.15625890434394527,-0.011139131451612534,0.05569106038592367,0.0026963195116730815,0.0204326180722497,0.03266930382447718,0.1257598440929816,0.10242750844468491,0.027216644213315905,0.11823119629422676,0.020124364710991906,0.06385338265665406,-0.02798111797102234,0.1206889584920801,0.05159840522463283,0.04108799383771969
CLCF1,-0.06496199629561752,0.03817252732746828,0.01728663234643288,-0.022852965051035633,0.02578791380238518,0.07425796000200346,0.12185962515211499,-0.009434825765477288,0.01273906880681166,0.032769922355272006,0.02635169247823243,0.06093037048131288,-0.03541073677944314,0.1335846302056075,0.011220638804188433,0.07987484368543289,0.07855728893019516,0.12472859509600266,-0.03059743944872059,0.07462201464806859,0.1261536120581469,0.16905529835487357
PSAP,0.07873273884354651,-0.04662484522248042,0.11743145689324518,-0.04665869619471652,-0.005498057988947837,0.07338595341618058,0.08402784269428443,-0.0074366618221264665,0.005960273485308705,0.16440263041802955,-0.052644726099178626,0.06838111646060784,-0.024364096888041652,0.05103422070317173,0.0882092519043197,0.1711204894489572,0.08151323266143932,0.11641149810845228,0.028992566388652195,0.12623034665952526,0.2464320565454417,0.09628506115325372
EFEMP1,-0.004617603384920906,-0.01990542295026522,0.04845807255382531,0.05596786144669438,0.03291531479992257,-0.005215969448410111,0.168226511079016,0.0007698995901118775,-0.022756904140963763,0.11503291581926303,0.02179482411404009,0.1400338212761796,0.07625781046937342,0.16231969375222527,0.033769545700965506,0.16174440625905998,0.12775357745041097,0.09156649950838362,-0.006098901268348146,0.13139303839760996,0.04490674518802821,0.20598734594539928
C1QTNF1,0.06901171386000111,0.04255407992518811,0.003774179340156413,0.028862410465950818,0.036517140242983574,-0.007254274701695418,0.0402044803869797,0.06103237877613368,0.053650158363981966,0.07208424908064315,0.05095109547675824,0.0412131385431596,0.05116383218298495,0.03924976227922324,0.01248194657271964,0.07105907365698146,0.050435718719482554,0.11263156756027103,0.014933690866281869,0.13095477097613883,-0.03819376867215968,0.19372168637859905
ALB,-0.01867152078469104,-0.05809437057739937,-0.009251682600127747,0.00460312097055119,,0.060166255032546155,0.012169294835598133,0.014911506983540799,-0.018200569451579742,0.052036797434655044,0.045422247053849105,-0.0010627715993037818,-0.013023899103847639,0.0010928604653227209,0.019162162057802277,0.004862946926593058,-0.04521864741910966,-0.02888093475995647,0.08611575175881647,-0.009913430794579077,0.058358068314031446,0.017304142270700772
CCL13,,,,,,,,,,,0.058338969325758536,,,,,,-0.02372685082739536,,,0.008895494326557117,,
EFNA3,-0.05407940742619345,-0.001287609121270618,0.045951369192774615,-0.0014733523424500196,0.014071761027953976,0.06165035447103499,0.03876766686620573,-0.006681936047851612,-0.01437454034447529,-0.07924978712489532,0.02610713515701331,0.02872424618797082,-0.04279451469146838,0.0027032738506657843,0.07518635200183442,0.1999561291772721,0.03376233316979615,0.0758995030387456,0.07964524216566485,-0.003901889183326307,0.10146915016708123,0.04930473161231842
DRAXIN,-0.02969693161401084,-0.038847273359459256,-0.03429978421248316,-0.01644568167845768,-0.013196654512164882,0.05791747848287633,0.026941827781390485,0.031177989975055536,-0.014614164134241589,0.051270596907842324,0.034945949501951304,0.14149913910022874,0.022379038728974527,0.10577480262972289,-0.02403725315503003,0.027343202570082353,0.008657790959916742,-0.008695701255097997,-0.007282092395482817,0.02461641712803652,0.12198832904529651,0.0829619122283533
RAET1L,,,0.09786370226471668,,,,,,-0.017503750487750474,,,,,,,,,0.024861927039320827,,0.03133500472652277,,
NPTX2,0.016058835746935382,-0.14171557129518392,0.01907432446963937,-0.03447429391376562,0.036234929085687026,0.02440948169139496,-0.04733345224562463,0.029213911720122582,0.016198052228578317,0.16379036445942852,0.08919483782832846,0.011376218841287238,-0.015758350236310958,0.023438127237044293,,-0.03020773542166261,0.07805766503162685,0.1262716674692466,-0.017126306446125585,0.10601116120101069,0.14740883078003558,0.1093518392027391
FGF11,0.011328467385175085,-0.02264779886578587,0.02454387227316476,0.017675266375547925,0.04779050004490821,0.03111338990403583,0.006379018326284627,0.005336311362601418,0.03756126810928984,-0.023460806650479817,0.08657737923570602,0.0340602725537132,-0.023655199697276242,0.09109896794942536,0.055008725251135204,0.05105467828961377,0.06270535161453404,0.022758980878720345,-0.024626403455017664,0.012586555378535844,0.0387632675321077,0.07679369156867927
CD59,0.001135217625853213,-0.10606124310862536,-0.009419227857723813,0.037751445649481505,-0.04479520575433421,-0.0615718707092804,0.0161162263413554,-0.06683682676689953,0.009468215746379478,0.08400315325200651,0.0774841162510483,-0.0034758594882270057,0.02910477715282106,-0.1254984878146051,-0.016077846245878723,0.014965510228003668,0.09728407826072841,0.039934025765320125,-0.017513558987376655,0.08493946848434243,0.052558292040653404,-0.0055936755426825805
COL9A2,-0.002866074857428966,-0.04740127603399806,-0.05597288895804726,0.0018463440809798595,0.06139920432892704,-0.06053624183144998,-0.08144865861239133,0.02884077636790243,-0.026311511600660743,0.05232369112141929,0.03573110783356726,-0.033747714356582297,0.03520498601415921,-0.027204872696158493,-0.12972665972821643,-0.0502011856361079,-0.012287691122677857,-0.026174688948795297,-0.010165011533965717,-0.11499995645059694,0.006258012860720335,0.036622919550037374
DLL3,0.03234594138276801,-0.04930940096731476,-0.13088634478287794,0.00473311844232092,0.001768464464074389,-0.11506757765654536,-0.024149497429544343,-0.01096847473523057,-0.010233759363258528,-0.06801461050422221,-0.02618537314700723,-0.09175510091961116,-0.057467497373142315,-0.08086107485013445,-0.03748484143826591,-0.026942867416003217,-0.027530468188465718,-0.0012859819952857176,0.0657184813101696,-0.08534600680545594,-0.07610280204675415,0.010683998465445953
FGF5,,,,,,,,,,0.04733665312857572,-0.01193005808885743,,,,,,,,,,0.07679624545185484,0.09679420025003603
LIN7C,-0.00643035743919658,-0.049995329492867446,-0.035197933905120465,-0.0022174209583987795,-0.044937033929816,0.011805956274069027,-0.025236808660999477,-0.011420499905660835,-0.037067848798601366,0.01321778761272945,0.03855156969945675,0.008976645871818604,0.013533234837462105,-0.06864718724117011,0.03358112115463869,0.034597451452424606,0.005847560308222983,-0.008444136633429711,-0.042960054624494884,-0.08950961938688405,0.047645917514923246,-0.028246943242297987
GDF7,-0.033728024551811425,0.014440864967636129,-0.009162460589855011,-0.0185315392425815,,-0.005399883977603285,,-0.0031790431699062357,-0.016024606741672432,-0.03746150821286932,,,,,,-0.031177157761654722,,-0.03345674642406327,-0.038139162933102544,0.022867999793503176,0.028321564170610547,-0.022546856421721648
PSPN,-0.0006340952474677284,0.044995612779844096,-0.022725587870247737,-0.0031586531054122644,0.10919782895433094,0.07267028892842113,-0.02191345313676443,-0.02226844450327904,-0.004604799431646162,0.0474204620142054,-0.04344089684054383,0.02903528261997916,0.10566924971380755,0.07300604869701467,0.008333542513538886,0.04929036089641277,0.009102504726476718,0.04532890993256633,0.0033579669344810836,0.05779673154355829,0.08355955302749866,0.06935627099437075
ANGPT1,0.0009244984098037649,0.008124833550686121,0.07782242142513801,0.05449968343069011,0.03695759258663001,-0.038776481261676266,-0.019974246726581376,0.008668723917830233,0.020658258721805402,0.08314626890603229,-0.05923374364299649,-0.0334154366675696,0.0040415057215692244,0.06485878570318802,0.019909726098556433,-0.014904861972782662,0.033915992870509705,0.040492279020912667,-0.019315106191789923,-0.004477167770948173,0.1230589246509047,-0.059406289134631016
PNOC,-0.007090789375535187,-0.038343849247916374,-0.008650053140027232,0.014827742263841346,-0.010536061931684595,-0.08360076487177966,-0.11384222532389458,-0.03209176364957518,-0.03271461668741359,-0.02877330157140319,0.1312588460472736,-0.04171959416572803,,,,,,0.07695517913158258,,-0.05190784994459339,0.07293569034257504,-0.04352390364512201
L1CAM,-0.010953039625270639,-0.04565328805332656,-0.04622481869316644,0.011788634608500964,0.007139846403755644,-0.034693095182108113,0.06279131605143651,-0.013004148117685832,0.047829617989759196,0.002690230316301386,0.11513570730169673,-0.07950367585678739,-0.04622968466365263,0.08665328106737401,0.0964013116275728,0.07958257337975715,0.02984041289259212,0.03930114306409979,0.03022601508223075,0.06352382088111605,-0.07685642288305351,-0.08147464065462341
APOA1,-0.026240844052141284,-0.036604004506703695,-0.03579899188513964,-0.02566369404053893,-0.043251634755430875,0.00549757572088717,-0.031076243332333827,-0.020517822733267518,0.06436588173574322,-0.007168628562866384,0.054793835421189145,0.048352848494117036,0.11371592714784848,-0.023291546227004935,-0.059111495574222864,0.03350179361831124,0.010640462341793777,0.0868949186729285,-0.02882159639180538,0.059734698369669145,0.0781297992995409,0.0884156048240762
PSEN1,0.05204633520321779,-0.005517392148509746,0.04297333287241746,-0.03698748039442044,-0.03922893522289298,-0.02041556435880591,-0.007983329120878319,0.011012944566260192,0.005186498275040785,0.0359220259050114,-0.00038133821159341033,-0.04193429383677373,-0.03153257699251379,-0.030780759087916932,-0.01351093410518242,-0.10491274808616972,0.0009364617743954141,0.04244865977981774,-0.01022507675276218,-0.03671404452147522,0.04305060755410703,0.12612665541549484
CALM2,0.05528480587699884,-0.11696264556888089,-0.06518386185108563,0.07183715099788832,-0.0003955378151423645,-0.11889166788476524,-0.1281601419390871,0.02103557852297597,-0.027980786548311133,-0.11132072831721826,-0.019603766915163825,-0.13551442945454564,-0.06441959510312828,-0.2751543080163254,0.0374365733393537,-0.1884685840385058,0.07629768230867086,0.023535945745097746,-0.039047807792249686,-0.031136416190202947,-0.09833340979323371,-0.18823636910289107
CLEC2B,-0.028477918856187584,0.1843523648376128,0.14607847318544503,0.02300562774623121,-0.0011971281865073092,0.04682506343089216,0.06012600928138408,-0.02009894485495134,-0.0028580814856051075,0.07850341413558604,0.043275334911151105,0.01640083191701796,0.018992450862271134,0.07601717731897989,0.006068143921730661,0.0729158818463572,0.09941610756099278,0.0740838648314408,0.014340137599523881,0.0753887673163831,0.19247988106149358,0.16509442014375267
NTNG1,0.05788065671229349,-0.034010798972361235,-0.013291516499019499,0.0370557457918336,,-0.000516179639277822,0.01956799184187526,-0.023516157037642243,-0.027532694901179273,-0.026474269943799825,-0.035442216949460335,-0.01563855834737301,-0.0367398591718724,0.076860862529176,-0.025946697543784394,-0.05728077821492042,-0.006945433223969754,0.0858833838540547,0.11196235417559912,0.027981124270001215,0.05331967852539221,0.16364887926756222
LRIG1,-0.03903258130132064,-0.11984730465540774,-0.12018876743762735,0.02192413937979739,0.023070294094382153,-0.0742915831618907,-0.10766016099924744,0.0017875310100439448,0.014390770840906399,0.10374674278529926,-0.01825913835057937,-0.05143592230337729,-0.0422680778396696,-0.18665502085430127,-0.04970762296658455,0.09498872372423363,0.001978617913931362,0.00478471674250617,-0.017264814796928565,-0.13854897895267695,-0.13130259876627765,0.01801922610357108
CPAMD8,0.09011783814342234,,-0.010434233506660298,,,0.05742435109543003,-0.04040735901665526,-0.017477697621350544,-0.029660222058729688,0.0648102724404772,,0.014773086421738925,0.036711491374789705,,0.04206156393447503,0.12836385365727493,,0.06467160442063545,0.004168411458085939,,0.042836926217984246,-0.033376924496978384
GHRL,-0.006341774831388336,,-0.044384481237117836,0.0053665632723618635,,-0.028055710965450422,-0.01614457540035974,-0.030644604250700112,-0.014614164134241589,-0.015220752470591879,,-0.0015772062323647072,-0.04885551650642065,-0.027984641665704177,-0.03874377527116382,0.03882930890738661,,,-0.015001708022452053,0.05118094107727548,0.07589256176409907,-0.021177116096914098
NPY,-0.021130812620324325,0.044940348374931466,-0.07734080739839229,0.027516619151311338,-0.02125107341234526,0.003049424254471953,-0.02001115446973843,0.07362607257864853,-0.001966497736225318,0.014724220062125926,,0.02779143621912068,0.034951809226550105,-0.03035571767578737,,-0.00022756619737159995,0.07173714670094077,0.15625653059300254,-0.0440573407897114,0.0021485779937402225,0.006364173017556654,-0.12039672361870271
MMP2,0.03504748473558118,-0.04896551903557428,-0.029257917257523757,0.04204555006896879,0.04391721132587079,-0.07996520761026017,-0.00042909212640129205,-0.015635847174426273,-0.009663511834046337,0.09534890780569019,-0.02560815407744769,0.01967241938992554,0.08959306164601569,-0.15408485004644948,-0.017397267987317944,0.10864877227334936,0.07943979995931946,0.041641413446465186,0.013066450958503348,-0.034419450369776866,0.06108496145184241,0.13580782771305983
LHB,,,,,,-0.008206425317877967,,,,,,,,,,,,,,,,
PPY,,,0.0502920672035065,,,-0.017785897620444992,,-0.012773353537270207,,,0.03949298480544549,,,,,,0.06530658131416237,0.1201643908663564,,-0.013903067138440051,0.06687514545090814,0.06158589960610533
ALKAL2,0.042388366248656724,0.03194345384118663,-0.0054687147610007324,0.07043460058161252,,0.033807564012711185,,0.08048046055355332,0.024027411290657774,0.130713603224781,-0.017758011617642483,-0.008037086600476041,0.023255083413721008,0.014211450866277143,,-0.04068737982259665,0.02931594010550116,-0.017262928198364776,-0.009455641893526162,0.022703988985038625,0.0424751277709628,0.022610305654403164
CSF1,-0.005948315646192405,0.08413350049020411,0.08115489751830993,-0.03425166496585606,-0.012219913844650942,-0.0003503486707731116,0.0844495847060156,-0.008724308851926299,-0.00017221741891560984,0.020914049397489944,0.05197962232734621,0.0915517557336532,0.047018281373775256,0.0827321573396698,0.01631897816462486,0.049148130115970905,0.062117761788831216,0.021870412657615378,0.01184656906958001,0.07087351736250536,0.02721932950085017,0.10552877342622174
SEMA4C,-0.002683432355430703,-0.05616822211295489,0.02802622592561771,0.04575839459239414,0.06414421699382755,-0.04287209803230475,-0.006089183297289203,0.01726695009081623,0.024073297417164862,0.1337626645489003,0.07441298652333478,0.04347971637425789,0.03530930792467114,0.06246183750852384,0.10966721883592041,0.09112177203073234,0.052429735310515015,0.09949468401499367,0.029541359650168596,0.005143994830104128,0.12068828950167758,0.030291516120785535
BMP8A,,,,,,,,,,,,,,,,,,,,,0.02895992179922061,
ICAM2,-0.05095933155505424,-0.0642425714864081,-0.0021222741947176343,0.020874889296996508,-0.045019878802239933,-0.007564413422232617,0.0053669113590463675,-0.04641781286215632,0.07499291238137248,-0.00693621747814659,0.008673482724427799,0.035292009761108335,-0.0527226615024999,-0.010198940594172604,-0.0058075472441617695,0.06365289729334804,0.026215563166225545,0.0418265535121654,-0.04813748730761942,-0.059713816214040184,0.19194280407812297,0.011080102674525558
SYTL3,0.012812035942786851,0.03983255530297315,0.060939526922931024,0.027546208113954012,0.036166769114804743,0.07551036062986675,0.06677192284737829,-0.006121413178149123,-0.01493074615075887,-0.027413987058723194,0.058387805923231874,0.07076177813617311,0.16461745399152647,0.08253658531602617,0.0683134989931042,0.06425258364843135,-0.0051024352608753055,0.11006080192344518,0.0809348856991333,-0.037528553858664986,0.18572853339091114,0.04348373323720225
IL1A,-0.020780756816228336,-0.024231961073809354,0.09521531972978925,0.06378117676753528,0.026525060472527756,-0.0008282048245394419,0.03295517261861755,-0.006577900586545452,0.008660746329481467,0.04332498741952408,,-0.00669842380166252,-0.027784073722815647,0.08960387260048625,-0.0728872928885013,0.11753564306488909,0.01787818335445151,0.050725589394854706,-0.008736861244369436,0.04163591979888443,0.025011030810560053,0.021481303196445967
HLA-G,,0.0342979302711513,0.196053985075412,,,0.008796433782483005,,,,,,,,0.08474581291902412,-0.030514590340889818,,0.02126192277765451,0.04449830823758411,,-0.021426822137944928,,
PGF,-0.07531811015045137,0.044519551331245334,0.023484297465399876,0.0025594400911356685,-0.008243406328860356,-0.0232390159263588,0.028789209921066643,-0.004566125592125734,0.06117912763560043,0.02007405914522154,0.0575465257870668,0.20843252423095784,0.029161089552831004,-0.06050969550176323,0.10514151750185508,0.12244687840541695,0.03332646393082219,0.014192777217219713,0.0462075153810954,0.07113895813194297,0.16321672811759141,0.00018318648827349323
LGALS8,0.009668645594281565,0.021527781657173558,0.0724394479248564,-0.006832684645871492,-0.0007519988612340595,0.02269401241901891,0.03591929904202707,0.015497766641921264,-0.06424508037762941,-0.005861511808147365,0.02718249553435134,0.016042270578458487,0.06461180963144401,0.07625767764475232,0.03120961457710122,0.13243310138365902,0.009234321250863608,0.07614673955370886,0.0405027384917815,-0.03897181846909654,0.034836989799325584,0.10218620190756238
DKK3,-0.007656942856280707,-0.15667974165714454,-0.07278566730184122,-0.02649746332377601,0.023369836929920354,-0.04894942234969375,-0.10609141982846534,0.0142903555168082,-0.012196271042755755,-0.12267727509461857,-0.004452563505972147,-0.04667326770716607,-0.04178742994698943,-0.12905862963485812,0.03912071492614914,0.030309849505645078,0.036219696861436126,0.0024441309627579264,0.053038231001141765,0.04484306324649042,0.02554805076989305,-0.11743729117258594
COL16A1,-0.001413320056025001,-0.09522590476436468,-0.0004904592439540197,-0.03349664998786297,0.08499131404335943,-0.0540857021594382,-0.08131335397650881,0.011445120071291868,0.0021893109666340856,0.0699997123228103,0.006962265692519045,-0.07304056922286248,0.034853843056919735,-0.13812317285387396,-0.08585618565117537,0.05688259056627522,0.011491880712632027,0.0071087622928443905,0.01909696805688427,0.09557508213952894,0.09801773201957452,0.01842715145758016
TPH1,-0.0017043162897409493,-0.0546641065067642,0.03314348484533332,,0.0055427449564057225,-0.019310027750210967,-0.020042823510934983,0.04495351128729287,,,,0.028476825756369322,,0.06783641367951415,-0.0028624286171549354,,0.07666223060791681,-0.003134759859642533,-0.02116110816521638,0.022652416914014067,0.16059293672662875,0.05148222480820212
TNC,-0.06171239362435186,0.041773591320277914,0.006495199982012106,0.010539097932910331,-0.03947566742204237,0.06958568286463283,0.12180911548272481,0.018291093791287957,-0.04985952590116667,0.11588156692801635,-0.058182860316227304,0.13100694801422116,0.07228519020096646,0.23295209779131879,0.022744527804775226,0.20333584653844222,0.07656643706114043,0.053791954959865086,-0.005616756385282875,0.2101432112582576,0.03435366727781592,0.1309188209145577
TNFSF9,-0.012778023821777887,-0.04172095097022474,0.19537349745843977,-0.02487371630685697,-0.003069884586905018,-0.0014647967473615546,-0.03595894956781832,-0.040153497942028236,-0.012647491114670771,-0.027089223925215847,0.0821344871400694,-0.02749772796852473,,,0.09053289669776267,-0.02709164669477965,0.021628390292809864,0.03845579992405371,0.03320637402491096,-0.010344679083527639,0.036312112981206845,0.04562242916181397
C4A,,,,0.029012071557923083,,-0.03393397068681307,,-0.015142169923551439,,-0.03547214035941837,-0.02006351040575048,0.040874556937963956,,0.014618061675738273,,,0.030339891118063973,,0.011582716163312915,-0.009834267610074533,0.027033024986362574,
CNTN2,0.05991251688402727,-0.1018464942143153,-0.047292218234688974,0.029001811873850186,0.1200373810954872,-0.0374902669467785,-0.11366483277262145,0.008673529987524091,0.05352183528066184,0.09908207173282586,0.0024532073876528367,-0.07524177354091799,-0.10986611453714816,-0.05364876686579363,0.024880096552907054,-0.14559212365471338,0.0002972106106237102,0.03869193983291564,-0.004117512202337604,-0.03248482272086453,0.07179049895557404,-0.11441660346730315
F7,,,0.0766458540291312,,,,,,,,0.07973239980330042,,,,,,-0.016740378859177375,,,0.01892159327948318,,-0.04769373281175735
LUM,-0.041593413015524223,-0.017829526350923823,-0.014509805372230207,-0.021611359241311696,-0.055697893535472984,-0.028529718984813077,0.029255625901079652,0.009090819188579265,-0.007588417974059403,-0.0028175637826622917,-0.06891661609764936,0.13984863151551902,0.07674972168056565,-0.04572384133317492,0.05700133105658932,0.1017914022196508,0.11113169501491889,0.09982526555598288,-0.03655580671021298,0.06156722876638659,0.13093989273809223,0.11199914271970667
IZUMO1,0.0710541145584745,,,,,,,,,,,,,,,,,,,,,
BTC,,,-0.02118889968311183,-0.007979480091487119,,-0.041397632162822516,0.03448649377945755,,0.01752145164513748,0.1422830887177685,,,,,0.08346541321585911,,-0.022358203538194645,-0.007147527290410586,0.0846676996966232,0.011494160805525679,0.0713589652667895,0.057088487303376186
APOC1,0.10756407296669866,0.1427156875014856,0.10692152682288977,0.02501032358528589,0.03747768964108121,-0.01125637416207279,-0.0722398934473889,-0.004764569802941575,0.05718564383158135,0.10390365599075116,-0.04494947761281582,0.15274682778504128,0.07606082177074397,0.018696091135984475,-0.06587015836818345,-0.06819057835087709,0.03232434528057845,0.04775248461561242,-0.005205694138454313,-0.09947273533199437,0.06411238994651362,0.09186668949045602
PKM,-0.04636609536956343,-0.07685767319142829,0.020736589610827236,0.01686986368502836,-0.007882203079709754,0.10947516632739422,0.1444856379210992,0.027535677157004366,-0.0010585024451201343,-0.056100271681979584,0.10294106688290518,0.06600783910333992,0.015129362416074127,0.29829408926472206,-0.05102765976012499,0.22804822128055055,0.08364975958071254,0.042026717898028455,-0.0404165260564434,0.14238648577987034,0.0707981242468957,0.14622724263802814
TNF,,-0.01782591440519185,-0.003812907419774707,0.01703072046816843,,0.06823817280638962,0.017601270152897804,-0.025812053939396604,0.08820653687359366,0.12626337005394916,0.09957506728018654,-0.0386937354418659,-0.00020139915825818252,-0.10368777838653512,-0.09911714847776487,-0.019142254809953563,0.004977539290857601,0.02720522008387051,,,0.07189424272105666,0.019924417680226913
GNAS,0.03926535541471288,-0.1551216527757311,-0.045634927462233285,0.0005715016563454423,0.014868432873844328,-0.15137318128211774,-0.18099633764106915,0.038762373760838145,-0.02029545109725528,-0.127061399350365,-0.025109322138193134,-0.0257797261739783,0.08317085792663834,0.1169607134501455,-0.017052203313538038,-0.06473641040076933,-0.1254628036948476,0.0007935184773034101,-0.01566512357789317,-0.017520736265822665,-0.12527696923308768,-0.11578048189936767
BMP8B,-0.02351293325386006,-0.0595038590902372,0.05208563818583484,0.002306560441881656,0.015401610964391759,0.07906959497417726,0.03556797408168989,-0.03932824810776877,0.1053186336776625,0.06063246062258128,0.0014564614868420424,0.02343996027894556,-0.005743986703505427,0.023793916345425895,-0.06450904389161972,-0.050757463228506744,0.016452265269914557,0.12300605652196375,-0.04728259798442647,0.125245628322207,0.10513882871916573,0.088000679933167
LIPH,,0.009893884361115301,-0.023940102870210412,,-0.03815365416051498,-0.007388531456298724,,-0.012208728320348056,,,,,,-0.12375293697433912,,,-0.011017134492338638,-0.009169472854349815,,0.017503389995047774,0.039558904010035825,0.05764015229207424
CCL28,,-0.026900702418676127,-0.033674732664979876,,,,,-0.018799433152143177,-0.016779668000252785,-0.05865046215478074,,0.06586516097002464,,0.08822199654164567,,,,,0.046044257194333124,,0.11335752888223057,0.04518930263516367
PTPN11,-0.11485752431138187,0.0032145911149179256,-0.011426546042592314,0.02348442093889595,-0.02241683386913546,3.604744034942595e-05,-0.04381394293025985,0.04452734228149123,-0.058895729614218496,-0.0030839188186132754,0.07192114382310155,-0.06992020118280409,-0.02290790871661929,-0.17003257498849322,-0.03378674673963492,-0.12154455280506861,-0.0015794896519089761,-0.03997206309423902,0.014723987068021385,-0.05658483025017399,-0.013387006946166896,-0.007975407924316395
ADAM12,0.034822906991707404,0.024384840100617373,-0.006029813459943402,0.0007186674125967581,-0.00871411160964042,0.039065064607709005,-0.010022993810022663,-0.0003932330622435277,-0.016216506006812858,0.03172321843300917,0.04775864183436739,0.10779073414594796,0.040234911641076905,-0.1004154083041898,0.057978878642629024,0.0784451821743686,0.014552721231122692,0.0864698643932436,0.04482739526880378,0.09078823799810974,0.051332900061914565,0.07522537806249585
EPO,,0.003302185029512001,-0.021692406032963973,,,-0.002794489237870254,0.012911581088146938,-0.012773354094829612,,,0.07818996512583927,0.02992163689235283,,,0.023963413830882612,-0.028643967322683435,-0.031344735229600185,0.04084854654434193,,-0.02112752891782024,-0.011257985834083589,
EDN3,0.025609790391672008,-0.02472015134454275,-0.0010317223867025087,0.10447062232405001,-0.04500590035414586,-0.009183934946413588,-0.008921629192380683,-0.01979806886724043,0.0042298167882004875,-0.03273346685019861,,-0.02563636575916706,,,,0.008909890532026506,0.020936696506878474,0.0752308161585816,0.015332012745675071,-0.025841141496956748,0.006614343931691704,0.05579690464224233
CCL22,,,,0.036036926158766386,,,,0.06132947792755533,,,,,,,,,0.06132748230706167,0.02836802826468528,0.056716676101598154,0.006385892127691458,0.05429827516204894,
CCL2,-0.0053359914196265045,-0.0007574141516226312,0.06688209662043575,0.0007992379155246377,0.015789707237311604,0.009952149264202289,0.1685427191526439,0.010503654735940404,0.09175707802237955,0.18026767045617836,0.0075844768906829264,0.023897584055239875,0.06533897432461754,0.05754878490766761,-0.05476544685135051,0.09258550769947446,0.13268211746069328,0.10481280792417356,-0.016479187519061852,0.09622620321290015,0.028573387402636666,0.13128739210732232
DSCAM,0.04892138264410418,0.006619445235872183,-0.033806106744765474,-0.005868893916393836,0.061137357500628944,-0.03179533293307691,-0.006367825951290356,-0.015391345741796078,-0.016032088107458722,-0.0657366440240872,0.02349091097120092,0.02247789795409021,0.028424421580172655,-0.08363383408467358,0.009397069326645876,0.04246842368992048,-0.003554594946110427,0.01832967367303969,-0.00768138952979724,-0.04273973860951374,0.027659560065397024,0.14388879928279927
GPHA2,,,-0.02668246110839077,,,,,,,,,,,,,,,,,,,
ANG,-0.021578886791428286,0.10095420251977903,0.08944891708160069,-0.01091174347030914,-0.00818829668841784,0.1547020165570711,0.016680690571143124,0.0721654210238261,0.05245895707763525,-0.0002985363474252466,-0.005719320519501302,0.1520123836368804,-0.023747518387105784,0.23041270293667615,0.07234017987588891,0.17870745552687925,0.06271575997915678,0.08284699776714681,0.031842008473922066,0.05833601102445191,0.1421138318723861,0.10502611720232778
FBLN2,-0.0390790992576428,-0.050914127567132254,0.059546133385168995,0.036152528426203985,-0.008045870386166106,0.020705131242558607,-0.0014635215445503466,-0.01839031106462781,0.007331397642837763,0.012983419100318656,0.016608651974721035,-0.025725688827703094,-0.04756575955166812,0.028915922543819663,,0.08449102800001364,0.15176197433009417,0.09400639846437259,0.0072277246583699216,0.030691139474845638,0.08956789053750097,0.05874372882248333
VTN,,0.0036902254151316353,-0.012893425331056854,,0.008893353536392104,0.03935919845530501,0.019292418104744583,-0.007609632958970287,-0.00921727760951625,,,-0.021084713605008357,-0.013382118432760763,0.08547235028965802,0.015571348129301991,,0.004119849084769467,-0.013991285244767468,,-0.014847569931256521,0.019802447733629724,0.020420959145570197
VEGFA,-0.05270300578292691,0.08958390595680378,0.07930295360650484,-0.005777349297134505,-0.005614878625115926,0.16327330374548019,0.15643446697662527,0.019902378953172435,-0.0011482998958412664,0.0425377691947638,0.08390670233009936,0.08650736079381348,0.0562824077117399,0.3170482279453465,0.013918780897781835,0.20464527961656695,0.026809179910591313,-0.006486580138128229,0.06315803411418638,0.1601986085905814,-0.08712358586849395,0.15709968668574925
F10,,,,-0.02115257942925477,,,-0.01224000999123559,-0.014005706688606461,0.06788859296678769,-0.06443285853274781,0.036239938701036783,,0.012606648737628224,,0.045513022596186066,,,0.02358812339461281,-0.029935619740775254,0.004133300470391223,0.009229924455830943,-0.04986360221911727
SERPINA1,0.04273242858237352,0.07589025805080767,0.10219625601585286,0.0032111993106513454,0.10381804051630279,0.0363107265752985,0.15076891663720743,-0.010968949390544921,-0.01640192215710703,0.15291364352689307,0.07597605131512601,0.13096953083000207,0.054745641226048365,0.14738384846834549,-0.04667710590494557,0.026560757818563686,0.09562145449619054,0.05620731519715505,-0.0011572382391171802,0.10244023450406592,0.18752424210029806,0.16913519494435147
VWF,-0.018242073484660074,-0.0619440038561999,-0.015564377613196963,0.02317914532784889,-0.07033493033128335,0.006979728617501701,-0.059611793348305346,-0.047631165736012164,0.028735351252218287,0.045517620634994684,0.0037652128564316313,0.040495299893515586,-0.0600651658490077,-0.05082480183173882,0.12235352869284317,0.08798679356125316,0.0267399134118705,0.07940524185706639,-0.024953117804494194,-0.009932165506760862,0.06096896608896505,-0.08541387024208211
GDNF,,,0.06677895834921008,,0.01585839310665299,0.11682903198394362,,,,,-0.05534520342012179,-0.025374536311002033,,,-0.006989176707939661,0.07514826725820734,0.0513432360747029,0.06151374328701739,,-0.00019683982614353423,,
VASP,0.09487904961667193,0.04411350232336679,0.08179190232995566,0.03491144597214097,-0.0091584249259753,0.03383311537413233,0.07142068304273975,0.0013343441736945725,-0.018928591395144845,0.018939557927888626,0.022622945315381386,0.07743958733046917,0.06160023599306563,-0.03329923458156127,0.015780427359153547,0.028407849307240395,-0.018918933907108346,0.0402386872725154,-0.008156845913711712,0.022431210213467903,0.11981022100799574,0.12438487137829529
ADAM15,-0.022243168837844985,-0.04941241862232654,0.021326898047271295,-0.04742128187914469,-0.0718482524580592,-0.04422296041163385,-0.01662476762074899,0.008936971252710119,0.07112018947140392,0.004586322234478257,0.02599885315857792,0.02649496315288594,-0.012096569165097574,-0.02843080895525214,-0.12413065199645879,0.05709388641693707,0.07085175640237394,0.06979699455964529,0.015318168465401074,-0.015629229814547996,0.07309969158092258,0.017023012979974883
WNT2,,-0.04772605427106362,-0.04187736283969715,,0.04763153247425705,,-0.03448217837632503,,0.09912597942550144,0.09966915800878477,,-0.023746803899462248,,0.10433862254933027,,,-0.015471128452046092,-0.0726661833427148,,-0.04865916854672715,0.13988295728498637,0.11317247955438059
CALCB,,-0.04995261972521202,,0.020691693388383486,0.05645754800736944,,0.09472323042080433,,,-0.032087853249339986,,,,,,,0.03181200189879515,0.0596559410524512,,0.12004396678886228,,0.012149070130252453
OLFM2,-0.0013403582358468642,-0.12672485582054124,-0.06879096454250606,-0.00429657480743625,-0.01323006063088027,-0.049337807051283065,-0.09195318214902735,0.03413789361250202,-0.0663971246724536,-0.09677626416406857,0.0631899700489013,-0.0747256318666857,-0.0032312277571262885,-0.1028924640664042,-0.009224610817158583,0.0947941117183096,-0.03842736652979052,-0.018375898580185197,0.051061843596751554,-0.048823508266540215,-0.08914619927703853,0.004498162298378521
MFAP2,0.022823941889262025,-0.05422260214203936,0.06439492827379481,0.0718044533495939,,0.009977661438566099,0.049070402676865854,0.046621055317291174,-0.004098420232532676,0.02085181446172441,0.035872214364402764,0.14355040937602087,0.02193032086245998,-0.09863382603078692,0.027585873318877435,0.04654887749966434,0.06860657609099075,0.052492415713151046,-0.034596502823963184,0.03754986180181183,0.14500004201473773,0.0879050228704133
HLA-C,0.014565637931019233,0.008271851210406122,0.09000051912525567,-0.011850858572402255,0.01868467434894135,0.02085216543884856,0.1620173824381569,-0.06304788257990293,0.08316960278632791,0.14103251700895184,0.10074994768004958,0.1581389360069108,0.10590281976712278,-0.0035140396994863495,-0.0498588050333621,0.0892874174478979,0.10911138566423474,0.1272178517487542,0.04961572881202786,0.05589585562280353,0.12789042311360502,0.15425180963240315
THBS1,-0.03210283869113673,-0.03861248967644686,0.05887917902216373,0.012176700372697573,0.028499109755416165,0.020886347537816544,0.17330429782472775,-0.047135358886413604,0.07473666113189019,0.14194779496127402,0.01687155448846674,0.07166400728187032,0.07038268800023435,0.028370312339000107,0.04952071550925034,0.07851060507247816,0.0008729416290532049,0.061120690259255005,0.04672509336410116,0.12306542980049447,0.15288602618944264,0.20368876771108013
HSPA4,0.0268296617954911,0.0018701907302275155,-0.013297690798665862,-0.01540329217668114,-0.038133638038270405,0.03837875067751046,-0.02143808804281593,0.02879090534944303,0.00034275863905610136,0.01304464372185427,-0.01452643502235529,0.009506931791049776,0.02296169648956675,-0.03761308173029569,0.06114519225325822,-0.01120306899676781,-0.012043595079507622,0.06076388840180042,0.03933563353640054,-0.02572619613072708,0.014374544992528647,-0.07761642033237288
LMAN1,0.018363067341481815,0.06339718291141822,0.09685566188573512,0.006918827897887627,0.00766054061473562,0.0712929104739747,0.07538756216415866,0.03986485390711766,-0.030827981932926313,-0.00030757476731762406,0.057152099135193556,0.08985170381140219,0.0017740041227581908,0.04719404679522219,0.03697251144862114,0.06027023461719213,-0.015252823496755434,0.06309114976496284,-0.0343831941773772,0.08891377331244271,0.05884525313977419,0.088123046052519
LYPD3,,,-0.036521562070514886,0.05720035595217524,-0.0013220703301692724,-0.02256939241535121,0.03573099138747981,0.044296814170192475,0.028802472067249677,0.06364472757059611,0.02239051141410344,,0.04318404937881066,-0.07106538584947651,-0.014735241792727082,0.039891406231655636,0.026444631040152183,0.057934164900660265,,-0.012021718919517487,0.07221191692036859,0.014121589358620004
APOE,-0.000724573963561792,-0.12154927544946122,-0.02037754472742169,0.006115825442782516,0.04982409374808776,-0.1055915330134248,-0.06010695702807981,0.058193872969336806,0.005648978990627925,0.12081932548873504,0.02671169486945533,-0.016048343668770587,-0.12992403169523273,-0.013553520858211696,-0.0656838325331504,-0.040719958078901324,-0.04468746913040139,-0.008428708840863155,-0.0018270269611714836,-0.02273923192435517,0.05352907246730156,0.025449123788713227
SOSTDC1,-0.02967776458229546,-0.029762402088665853,-0.02898165349505076,,,,-0.053572711967821915,0.0523947955558879,6.0137391805255385e-05,0.009027175752741918,,-0.03858421188612136,,,,,0.07510105716366815,0.005316660145167525,,-0.027119683617848788,-0.02425514801164824,-0.06845474782017676
ANXA1,0.011232466962193254,0.07374643335581055,0.10318436857404674,-0.007167780770636748,0.029090843577379694,-0.004090684481461307,0.15644069875850997,-0.014860052569313404,0.00702990874226579,0.1280608363464735,-0.09992159720753513,0.17860743184955813,-0.01242731820404005,-0.019777713951320334,-0.06598378598164217,0.19731467038348327,0.07778810872881824,0.09206947963663314,-0.000659249353503095,0.06147907183525205,0.05101346361324289,0.0588446501381758
WNT2B,0.07479260510235967,0.051593818722439413,-0.0037977388520245826,0.03135793194176082,0.0492525067078999,0.06637406798683224,-0.035044424249956824,0.04240405800332587,0.015091658845816749,0.08923382113285032,-0.011787309477890227,-0.024341172591981937,0.07726713299872653,0.078121164582213,-0.028302278646052295,-0.017667759781390194,0.033526331030071944,0.006431226283426267,-0.04640188809212592,0.09054465580081017,0.0644980359807818,0.11320442296666149
AMH,,-0.0537438721946675,0.009823725620773672,-0.02293755720777099,0.035547262409365975,0.03856582638678128,-0.009402771835592266,0.16318088740619616,-0.01887313751572033,,-0.014153596328931052,-0.03879300305952811,,,-0.0025749167426910168,0.1235880318685547,0.008511328353747613,-0.01244849008502676,0.09647373505888196,0.013285491548197989,0.01951705373724927,-0.03862989331507988
GDF10,,0.02074825640864978,0.024436111695961257,-0.01921777936477598,,,-0.006165720270730555,-0.017202064410389174,0.05015956684315091,0.019650579466645952,,-0.04881726765036109,0.07958326655195339,-0.0828404865376808,0.16053591267049896,,0.031091657551478916,0.00496528776287435,-0.035180096528650964,0.007311172249190118,0.10264576027223343,0.050134464296527216
EFNB3,-0.01533100845472014,0.010836286870791056,0.03691734844798928,-0.008189926873912309,0.05960949411085037,-0.027807515253984824,-0.06363530746791053,0.004547047951219173,-0.04177698762193697,-0.08200758108334122,0.010976786313112673,-0.02703826815725866,0.1159030160046949,0.025236849674909894,0.09759468633996722,0.07352732824113718,-0.03548372251891145,0.04259780536294022,-0.05073345129015399,0.00017127329487248702,0.07638253146483798,-0.07247437141236736
LTB,0.10090943958994615,-0.011099142114421598,-0.0471857531388239,-0.0280365327169598,,0.02811147930678258,-0.049168186025010295,-0.02222464920344661,0.1573102040235806,0.060634961760057754,0.08123345114699605,-0.008078843698290828,0.14739880510066422,0.07564405511204099,0.039695973932177275,0.13987669011963938,0.07546645120540493,0.05272267716641524,-0.028948376484835347,-0.04373366917747834,0.1368189538186791,0.058145705200465365
ANGPT2,0.024320806503968912,-0.006202256943000948,0.02274505555475004,0.03860131357401641,-0.0172198374285871,0.026143060951360486,-0.008489743137403343,-0.042476703919168156,-0.01394561434720052,0.03371090891611395,0.026517403490145523,0.0852619711948857,-0.009011857681411483,-0.04370233096380672,0.1003142701963095,0.14117793148856403,0.04418863693412776,0.08010832538961568,0.014629229795742238,0.0643503677959947,0.1107145222627128,0.025617016972341724
NRTN,,,,,,,,,,,,,,,,0.05928186764277028,,,-0.03518010914934489,0.031243247768341652,,
ADAM17,-0.021568415172802585,-0.024669230834874226,0.011646968335221932,0.03047758986422365,-0.04217919494268294,-0.0032230295564780577,0.015249528981041417,-0.03349033166797581,-0.017459620285483278,0.07138485798509564,0.029527161009994838,0.04110763612161717,-0.030061593758005614,-0.1332126688360426,-0.05044498262086496,0.08351815346498204,0.015157315234619198,0.05732919664267685,-0.0029652137383881557,0.035669919210193635,0.028553140878149422,0.16016867353991707
LRPAP1,-0.07395287359005917,-0.046369647305842816,-0.041940484746957676,-0.05682235303470719,0.056111557076558634,-0.017574526521664954,-0.013191188231466354,-0.031602451582877715,0.013735541383543859,0.05705676928314967,0.034492106778170474,-0.025743006704576854,0.02347007949308795,0.012598514520575942,0.023693520705904653,0.044752444999682915,0.036744726808200276,0.10588522625518912,0.06485451375757813,0.007625791457576865,-0.02210501843905439,-0.03470599981217052
NID1,-0.028146779426809706,-0.075527710351786,-0.002213435220613053,-0.026389320377452574,0.01749174195847652,-0.07545053504962483,0.0445558064526589,-0.004859312358655296,0.030146614512676684,-0.009533902940125322,-0.08391857103948752,0.05245032365594839,0.011058357195365728,-0.13132040372425052,0.15592738396334202,0.1545079592597276,0.02954369380905114,0.0322503007430335,0.01792409296756038,0.08639237850599607,0.07999792586309516,0.043714413354407705
MST1,0.08127779108166952,0.06617323855516759,0.039159074222542514,-0.013153388849859626,0.03604679428916433,-0.01567766636848852,0.04243873254763776,-0.002012104577679015,0.006745844305031588,-0.031238805721143775,0.040882937790278955,0.039335575167326005,-0.008757164439275145,0.06786745869389392,-0.034950401343491956,0.057245162690681334,0.09528279048878238,0.0962432803990711,0.06852658565438959,-0.03786187471881657,0.032702843613453055,0.06610550826656982
CCL14,,,,,,,,,,,0.03727456333634667,,,,,,,,,,,
IL13,,,,,,,,,,,,-0.029759513885301625,,0.05179521397282539,,,,,,,,
DCN,-0.008123096674821216,-0.04373508220230199,0.01710861328552472,0.03544967149204579,-0.02964444632013618,-0.04554211027197556,-0.01643461801593765,-0.06670269238555035,0.042678652353882046,0.03727115500256399,-0.06574719709411742,0.04766118535691144,0.03496377182979768,-0.15613611289864782,0.05628467544580144,0.04495559034576902,0.006004085218659871,0.05917055859723058,-0.019051321970379453,0.0537701335166887,0.08702407550529513,0.05013243044248391
IGFL2,,,,,,,,-0.015142171525777223,,,,,,,,,,0.0475056271883898,,,0.022521240461032287,
COL7A1,-0.026945434984212945,-0.018116671070885194,0.03836612119601882,0.12132335085472229,-0.007147166005149345,0.03195389511595327,0.06858467859230394,-0.023371656516613156,0.027863088913715032,0.046892742474092114,0.12550519796500872,0.04929357819336838,0.09579214709336104,0.06532812883863329,0.03256947544341406,0.05668805498712841,0.011026293147218801,0.06725603348904376,-0.03276252485089248,0.12223782271292377,0.1453192907576822,0.10945384977617958
CALR,-0.06998405338391651,0.02808316949965094,0.1202697115421105,0.030380375182691512,0.022328235941054493,-0.05984449420192205,0.10072585006554878,0.053428040394826404,-0.030964666752239568,0.11664287666518904,0.039672790228264816,0.028273311955891552,-0.040006784546219074,0.07401950486010309,0.0034743691727412425,0.07464786933889374,0.05675800832025995,0.01610702427389535,0.02539368781140215,0.1700784601194685,0.1392110720078547,0.19442564456916242
PIGA,0.027010625979536584,0.00911158111335396,0.041507739279314025,-0.024475919395796266,-0.06202610721338208,0.09934156120083776,-0.031171385240958836,-0.01992657604882576,0.023428635688075235,0.07258155946036324,0.14132336140835197,-0.01667920011997375,0.137652490058119,0.06731532850372042,0.02334608317442836,0.013711339256858497,0.07561030080067245,0.032028165610251395,0.002494343829841135,0.0183350370347008,0.10509395966138917,0.0819299197376567
CD200,0.039611191759502916,-0.05646181550682119,-0.03027927194333808,-0.016680401912992526,-0.01841744910321516,0.054339865930735136,0.013057336104476066,-0.06096846348854557,-0.03533602265049669,-0.08704384454662016,0.05805207182318792,-0.08960385495970519,0.059761594689899285,-0.12000556130975554,0.023075895590060038,-0.008954861256424099,-0.06462845157005867,0.03504180135779501,0.007179491097074429,0.05080579520679889,0.1378866655452267,-0.01317627263564148
GRP,,,-0.028847294699992813,-0.01631232133828868,,,,-0.02351005355814517,-0.0233447465714613,0.022473246976840385,,-0.025636369617631334,0.08420501571457162,,,,,0.0013956082312512942,0.03932109230762881,-0.04192082326887746,0.06420477034943686,0.0859662809718859
CDH1,-0.07382513678429158,,-0.0006301521524499036,-0.039058421116753596,,0.0075437827754892455,,0.04348662299277293,,0.03526055428438083,,-0.041719605751551044,0.08718385053114928,-0.037306851393005935,0.05027766517597141,0.11720328995691859,-0.02342285413192993,-0.039467010972251824,0.011954608305559498,0.04110392770493645,-0.0017248804625197341,0.0493099076663251
LPL,-0.06327125921945508,-0.07034038000176224,-0.020092482237492958,0.029456456714258564,0.02795051395662713,-0.0005002138424307198,-0.07623970349155675,0.010052078841748439,0.002933835359238477,0.01312707819371377,-0.03977225601564278,0.0027731889447946932,0.08359771598335065,0.06425917063735355,-0.024263341010321997,-0.07226719237714169,0.008767080905316636,-0.018207169939171118,0.04876798805031665,0.1398612743493163,-0.08845978872352911,0.19862641813872925
SEMA5A,-0.03766751026413126,-0.1048678037531559,-0.02535601976887709,-0.03599117089864877,-0.015492008045175983,0.04878669200749332,-0.053899180184269646,-0.036424249120846484,-0.0019607759290363696,0.010554822931853522,-0.015757456793487293,0.030249291184318385,0.02438704534684814,-0.08721127606988169,0.032900137335475914,0.098778821809786,-0.016832924888011556,0.027295280648631574,0.04178550081440705,0.03773574805244327,-0.10040086183209326,0.05285611027189721
SEMA7A,0.011926353970186022,0.0395398240593698,0.048051578725965535,0.008505702281166315,0.05646892369602545,0.0033970187250779026,-0.03442195937355595,0.033405588235866174,0.09326695727582471,0.052320659877778355,0.003326329770614035,0.02128622673879165,-0.029412612913866088,0.07392790264685171,0.17451234975156282,0.08033014851021482,0.032461029250937065,0.05342535055265522,0.022099312019998554,0.030017825153025177,0.15864160427287852,0.0060710902481877875
SEMA4G,-0.01572563340628813,-0.022570832936987688,-0.010597521827957519,0.024446074147452528,-0.019002094036934567,-0.007516668917437381,0.0150707686798229,0.02293804228197622,0.031807608335560816,-0.04273113402812697,0.013187632133150329,-0.03520849651770946,0.05369969336915326,0.031630469827839264,0.040262550080847295,0.040325710068011306,0.09370402418644332,0.08515576300975554,-0.020888008862508512,0.0014247969797328108,0.12434464316835422,0.021183399857804024
SEMA3B,0.02054978703384391,-0.09213430257802414,0.03646230451683715,0.0037787058884266936,-0.050475302321873375,-0.026305824870273043,-0.05559599493373222,0.06139625973064188,0.0029751780704138585,0.14653981636569383,0.08782109397530499,-0.06404698076000959,-0.1307399194921914,-0.1528004266335332,-0.05299062197279028,-0.08927794432235707,0.07195034919360088,-0.007642944331294734,-0.01964039862383455,0.1169283568094404,0.10199593201501139,-0.045812117390587166
RPH3A,-0.014304662557266543,-0.11491258426689104,-0.12740692434879322,-0.0338261250626818,-0.014617448416883127,-0.04317744536738495,-0.06504583764622802,-0.03215181917445745,-0.01741084480166568,-0.08019507937144825,,-0.12439980574247414,0.07158900592340131,-0.12589029636030127,,-0.020589795653229295,0.10308552559224796,0.0742693124069467,-0.02123155644653681,0.01881300203598282,-0.01462606691718607,-0.10416866134229309
JAG2,0.021748185284633015,-0.019115104707715408,-0.005972400907362206,-0.009629914127816155,0.048932904499026236,-0.026442374529640916,0.02827257460038371,0.006492060454289413,0.10582711783589305,-0.037504466825663475,0.024774530305017816,-0.02479536260316153,0.11663737524964345,-0.04881285794187353,0.045218785544805,0.16274638949910816,0.08784736256608927,0.05318935103260316,-0.03065371363498143,0.04063529636104417,0.1089298085222629,0.021719663254495557
CGN,0.09090415542824411,-0.06706305691842279,-0.0269652209651044,-0.022209628626328467,0.00817664012006419,-0.022786889670557725,0.048909262336917315,0.06254711971297736,0.1583411117695768,-0.008900546939872262,,-0.0466851757814987,-0.038565372482963635,0.006556374709002559,-0.10878232585294974,0.07555775295834764,0.0434108233288998,0.09935080051196406,0.032199516635036805,0.06662451867674053,0.011662390949627875,0.05493305886369897
GDF15,0.06058540490794342,0.08279938120699416,0.141113896826373,-0.0002895665434291808,0.04939894134423969,0.16737711848618644,0.051555698163201456,0.04021763200024052,,0.09621723887510945,0.03317413201835508,0.03438194354939109,0.06108036052576911,0.20427729949942422,0.03421507960090296,0.2670805980525159,-0.02392099887255593,0.06285432897733263,0.10715174562369836,0.06910439315645613,0.1296650033203487,0.13446543496393817
SEMA4F,-0.029852381047530612,0.009397778958403295,0.0032760138522084934,-0.025863321796230965,0.014118146621924753,0.053453314912891486,-0.07501919935081919,-0.010486077216769063,-0.03444043152275846,-0.00046343693281545575,0.09610346411227577,0.011427604948220156,-0.00826591402695041,0.012517042210976386,0.028252031883551475,0.053286013596736355,0.03743759964982979,0.07795804915227711,0.013427002417164983,0.10056511990741775,0.057422366441466,0.04783702318564682
NXPH1,-0.06067534118044717,-0.03262911449860159,-0.08723951209938571,-0.028395531256507827,0.045667356427792995,-0.06224785503788847,-0.055433145888009315,-0.03236792282807922,0.016860264981557557,-0.07438282816618864,,-0.10293353082855496,0.07639548083203333,-0.041741164325712364,-0.025317102931781924,-0.015661206778448674,0.11567701698915371,0.06475459938334786,0.02692907908205008,0.06566601371097434,-0.035369173921886966,0.032264320020854075
ARF1,0.00031763242762034835,0.0021822839417824074,0.09262350455781744,0.008337930615680418,0.049911209773556474,0.10725671574749279,0.03947422455772541,0.0006560781635891441,0.047504301954524715,-0.05529045173400452,0.01361576441950392,-0.047872043698246526,-0.028663554623466512,0.008956536506371255,0.09525100680782965,0.14066841098204078,0.05267955769245063,-0.005562467841025267,0.02659364344063999,-0.000971050167820729,0.09388239686320038,0.11733229636406416
DSC3,,,-0.020192758755305934,,,,,,,,0.016396958979502576,,,,,,,,,,0.0640975344916174,
EBI3,0.06828838436926477,-0.012165728017933471,0.066520343877203,0.027962460386969628,0.034274107276288775,0.005418405764780716,0.02133480607650766,-0.017044804575515445,0.004047379762222839,0.06164460582212314,0.0023127020638504833,0.0668637703851449,-0.00710583466712726,0.009909858215359094,-0.03725337002725792,0.03708107868297471,0.03953488355980008,0.10076645839932882,0.05421188790941209,-0.028335980153572766,0.13290207180824376,-0.017431359796776746
TIMP1,0.021127125321313403,0.03210215098070664,0.045532770458187516,0.024777590965265238,-0.07210937991994874,0.04734339439682996,0.14179672259041615,-0.009015817947976552,0.0620944133162751,0.1699689447047538,0.009890761230021165,0.14471023308496428,0.10139225212548413,0.24691600709072192,0.006596868937514589,0.13980150252918724,0.07924627220445365,0.011083866479642346,-0.014752295607174008,0.1706975755090404,0.1262120252551341,0.20941700486346995
SEMA3C,-0.040344319648360674,0.005530413453399612,0.04624582233622766,-0.0031074281651377817,-0.041688145886804265,0.011483415327812867,-0.03979430724547708,-0.044121175706473094,0.0594504079421694,0.07889897172245665,-0.05048828190817848,-0.03741787894693561,0.028327861727292375,-0.026845291198854815,-0.014389152239114193,0.016805786510085418,0.0035676797616886447,0.026693714806044575,0.006761444750502834,0.04361183504253401,0.11364563906347486,0.03848743472385341
GNRH2,,,,,,,,,,,,,,,,,,,,,0.03384406592581736,
GAS6,0.03085058504205557,-0.07016716957220406,-0.024642831386260177,-0.0088758290550603,-0.09353032613249704,-0.019359522890886105,-0.03968595450626141,0.018523443959019222,-0.0004310583819271958,0.037156193646970974,0.004221086195191564,0.03728766468906679,-0.036185629081227966,-0.020451458853092904,0.05708496311954073,0.046280301354544195,-0.00022035294351263078,0.06552142745361123,0.049444554423893894,0.0030128395806360915,0.03964281432432064,-0.035017073492005044
MEPE,,0.05688163952565413,0.05236222101474479,,-0.02690420586017274,-0.05602175266129111,-0.06025911968078136,0.007864315851480178,-0.02150172225711846,-0.02054956417239173,,-0.04700965994196347,0.09391534617709622,,,,0.042504991889612515,0.07199278010204388,,-0.026299876618905534,0.034331982142438267,-0.07943488485855
SERPINE1,0.008913139629310961,0.11277165765739994,0.0927525606242542,-0.029031961880051582,-0.0037811377813955593,0.1616594568498319,0.14927153184112932,-0.007650554550585832,0.04448698401010405,0.005871739153952786,0.03634502622086182,0.14867354788154669,0.10485968018467298,0.24452706753948564,0.007729154404146023,0.21115765590121938,-0.0020689563174600585,-0.009764091073025736,0.011100438392953707,0.11970801306779122,0.01788342024852524,0.16174299944067744
RSPO2,-0.03135626015443589,-0.09710351038796183,0.0351515253549246,-0.025533521864081594,0.01854932436856391,-0.03631284967930462,-0.07050627503307494,0.035585571488567225,0.024332588729939764,-0.07361339338766829,,-0.05558568678415809,,,,,-0.02169401427354415,0.01899331212805902,-0.009726121735275622,-0.06279564051707849,0.03623106121861627,-0.05965911330768369
SHBG,-0.03522721018940542,-0.005423941403132752,-0.026155591475245585,-0.024605439710187877,,0.016187971760792275,0.0008488794436952696,0.017640295857685978,0.03227658297013026,-0.03312661257236657,,0.1505244429628943,0.13499807353456758,-0.059539522733928166,-0.00091662850830588,-0.035298990028180724,-0.025525891720049806,0.09177374328507659,0.010685826370891997,-0.007389077521320046,-0.005405184967750357,0.012967957923218146
LGALS3BP,0.029478990895997904,-0.037978437161963974,-0.011979228671472506,0.04040752009561553,0.0017767749522654545,-0.028376809995182037,-0.018759463794105608,-0.007416899402221477,0.03025797748122566,0.15672795275939308,0.09559677453515415,0.03293893472534962,0.059422688064879735,-0.050136854530499646,-0.03450101910445092,0.014641181178042854,0.11562740925233139,0.07778176383479236,-0.027054970483842478,0.09299260570015475,0.10618248490309615,0.1556986100690639
LAMB1,-0.03491095998746879,-0.05315188050970177,0.027677604907246585,0.002042328240194553,0.028998864644420908,-0.02276086027527958,0.11961939822767388,-0.019780660087289022,0.06048474946063199,0.021053659382771487,0.0269930174820843,0.13817738900296542,0.0015155453684367731,-0.03643003570739022,-0.02650512809630388,0.2084532093037913,0.0786887973227333,0.08466325781563759,0.024211592911631472,0.12289955462000465,0.10967925759152904,0.12260630954193688
SPTBN2,0.0352666072604417,-0.043934154561078076,-0.04223242291635743,-0.020437005221991805,-0.013469538731641329,-0.027636665780338056,-0.13126322428577786,0.034814588551902774,0.008498837011033333,-0.12524872812319165,0.010715715398166322,-0.07998711073889135,0.13912206382467635,-0.05176759339432599,0.05701004143230095,0.014144137655546672,-0.011407692562624453,-0.0008210489146413587,-0.011140974746782892,-0.0294769031348133,-0.0015574858885460184,-0.05559409564961765
COL1A2,-0.05883975326183803,-0.037073887203621626,0.03453102915393071,0.046024863821004146,-0.029636245421825417,-0.01395498498256003,-0.004793050625359935,-0.001784706299674082,0.06395699520300104,0.12018947958644696,-0.030884447225123037,0.12869255159381482,-0.001727073830394602,-0.09939025529968491,0.11672829115406566,0.05005809857932238,0.02381349755652864,0.07989266798677672,0.03544907215706796,0.10566404073665524,0.06300669375454965,0.10209605356337222
DEFB1,,,,-0.014438794835460712,,,0.03067236453507639,-0.013490783050489062,,,,,,,,,,,,,0.06262333874962292,0.026895861487237525
CEACAM16,,,,,,,,,,,,0.04507282512734611,,-0.07923418611840222,,,,,,,,
SCT,,,,,,,,-0.012399692116130316,,,,,,,,,,,,,,
WNT11,,,0.020482390408638095,,,0.008724170131529436,,,-0.03450663385947114,,0.033453750847746884,,,,,,0.03729773291126726,0.003446131621165595,,0.030399058876167354,-0.04677776999083441,-0.054941755799271894
LGALS1,0.0419919723150052,0.18307568601455898,0.07760969337123688,-0.0027590622730310588,-0.027458743819117504,0.1602841221914836,0.13062618978797771,0.02400588662194919,0.01678265330470895,0.18029395682776572,-0.05049312356718357,0.23568154030947014,-0.01217460779363506,0.3271096126669532,0.023047577523288704,0.20901037808520923,0.05680938307360545,0.061551839363582724,0.03610219063112797,0.1673400059125624,0.13816851625773952,0.16514165027582417
BCAN,-0.010707441233755055,-0.15711520399900672,-0.13224586889156945,-0.03019965271824629,0.04452901119461901,-0.17908900154765534,-0.16011122454150747,-0.012734779054816311,-0.012242261126683165,-0.11204640093592813,-0.01296190876917957,-0.0680416687822517,-0.027314523870915777,-0.23945646182795555,-0.0571171984421921,-0.06685757138815382,-0.026838405547049252,0.0007821052504493193,0.04105059123174461,-0.11158923987279509,-0.1453756788204031,0.05289269836261637
ANOS1,-0.06426755893140901,-0.06293081120101712,-0.015495930319207315,0.02511647488309713,0.03209555215270516,-0.10584727805592652,-0.0561578044837366,-0.0014408302468464646,-0.007188263626329224,0.028408312133025887,0.016843480864829553,0.03178864129451566,-0.09542695558190699,0.062198083266304244,-0.023403397802685712,0.016230201366114777,0.03594240525648063,-0.018739901348702223,0.040069416671026384,-0.09222540665653416,0.0049759815988543975,-0.05717531606707171
