,MGH258,UKF243,UKF248,UKF251,UKF255,UKF259,UKF260,UKF266,UKF269,UKF275,UKF296,UKF304,UKF313,UKF334,ZH1007inf,ZH1007nec,ZH1019T1,ZH1019inf,ZH8811Abulk,ZH8811Bbulk,ZH8812bulk,ZH881T1,ZH881inf,ZH916T1,ZH916bulk,ZH916inf
IGFL3,,,,,,,,,0.07847941791633276,,,,,,,,,,,,-0.03812266673620728,,,0.011440506543108157,,
BMP1,-0.07930331633805285,-0.016698646018445066,0.1664941155871456,0.01799119279628519,-0.05249657630738851,0.010486682608129846,0.05410347873672797,0.13676993105096075,0.324827794433413,0.045230098848802865,0.0047736824499286235,0.1439825674633156,0.08300854372545026,0.21756336717077965,0.17306714128929368,-0.07694650223276416,0.06967902150789275,0.08718775406073219,0.20758117847405433,0.116658644526398,0.07686734441127392,0.007080726866568154,0.058536088076090904,0.12820958357503717,0.11105543800434031,0.08217371276271015
NDP,0.03667476150905224,0.017709454840660444,0.003277606934649795,0.007207799421645865,0.028149118289291727,-0.07778051385366624,-0.056428320296663,0.018184871093538696,0.08046429855431078,-0.06760251144059287,0.019371220321244685,0.10980653518288754,0.04315985179073379,0.13387583276249568,0.07889940909756013,-0.15414748870319134,-0.0046290552842352456,-0.06618096266756986,0.07467107926393504,0.08599830176152236,0.03222951037558235,0.03411991367162245,0.05174926987589426,-0.016272926879954668,-0.0023448494679156086,0.06211163367954634
TNFSF18,0.07952106659314973,-0.01837388431490094,-0.016381569436688313,0.006647493873543009,,,,0.09981091487958577,0.10622640632928004,0.006338347918231015,,,,,0.09886143784853105,,0.04153826786970475,,,,-0.023050645456809172,,-0.02985709168965757,-0.004122833595113623,0.029225701115289868,
IL36G,,,,,,,,,,,,,,0.015889060219280205,,,,,,,,,,,,
RTN4,0.14534278901885828,-0.015099126883137269,0.02796208464860291,-0.023868720012388954,0.01345477231436879,-0.024558254131461937,-0.033195704626629,-0.2331189802840395,-0.3829656411037779,-0.030473287563222675,-0.08099192419675806,-0.22295885006911312,-0.045142651063576934,-0.19708103983021336,0.12113423112214579,0.11085962152788982,0.015515540231915115,0.0024571709229258254,-0.14259757723062916,-0.058580903132778285,-0.05163545026966083,-0.048584599443945706,-0.03353599742438487,-0.02746280054965989,-0.09928246924658919,0.06538102298762614
HEBP1,0.029822047804486253,0.05187544218216789,0.05462057425517568,0.04057824584120469,0.08232710583413469,0.015596956573734909,-0.021071944715692265,0.02959413453477916,0.18054915142711953,-0.010649810717717595,0.006275964695971236,0.15704734880087215,0.04391199552671384,0.06065290144215116,0.08786281656944603,0.07885757197102669,0.07531288652942955,-0.06542671592029774,0.047504718940780594,0.059826436232115504,0.07070827987783918,0.10975428842376875,0.06592134354609419,0.07229884342685704,0.0031869165937757687,0.14639581397749063
WNT7B,0.05995303029128287,-0.09642297283562876,-0.025473254464887567,0.04578390158748642,0.05630455076586205,0.01265648666150377,0.0040028810727794056,-0.08465644555145271,-0.19034230511632447,0.08313092288495888,-0.06657356825353641,,0.028579288757942013,-0.025858098860860754,0.030450452438201474,0.16117310731018342,,0.06082557108974766,0.11021364720133477,0.022909175466040318,-0.008762457870185132,-0.06671632867662963,-0.05705679460433679,0.082945105152942,0.10134977854110627,0.09998702624349888
PTMA,0.048176368523881456,-0.008379717383183365,-0.0928941863165608,0.06565157335342152,-0.16799254651912268,0.05746494634852513,0.04514964411047391,0.26760505677516727,-0.07062216249865097,-0.013768591483356346,0.04128566720050157,0.3405433054757992,0.1701614746976699,0.272058191308839,0.11763723338461841,-0.01704179609263375,0.024524225259352196,-0.03474916942244552,-0.07688851878928825,-0.0016001856444622705,-0.01664422593323657,0.035487861887212965,0.13598083947380665,0.04742389827269998,0.08993414671927465,0.09706784570519904
FASLG,0.022578106464676458,,,,,,,,,,,,,,,,,,,,,,,0.003590946176123102,,
CEACAM1,0.005679498416241287,,0.025642599062752958,0.01941815202376219,,0.005214623013758814,-0.014367308396658177,,0.07767894712047227,0.021788874987098094,,,,,,-0.0255892600337777,0.023903442976249696,0.021972248140799434,-0.000589553982493062,-0.0017967650550696893,0.07705627579359582,0.040404272881864815,,0.009423487106740189,,
PDAP1,-0.024313193316188593,-0.028235493359519755,0.022378697424450745,0.0660107460989506,0.02037484205333124,-0.035661999146016955,0.01588301314664556,0.08541766228997905,0.25459775143934243,0.01253163430200427,0.03192412967851876,0.009266116581223784,0.12370130249632628,0.12247924821057558,0.006694248587068769,-0.07148407376052246,-0.0009717240589606498,0.016887395216805663,-0.04923021789812027,0.0008733593157018982,0.0001714075894621632,-0.032688353649955974,0.02744678026987135,0.006959721942566102,-0.01357147364378362,0.09173257179444255
QDPR,0.15569901290506774,-0.022134150998045367,-0.16775950963459524,0.037558669250813415,-0.028142208232076332,-0.015577626312271078,-0.0020087063429696083,-0.012820820330624868,-0.1723634406358329,-0.19323334329161973,0.008687310230866434,0.2588783512399499,0.14109913063440438,0.009009059568639363,-0.10318224587965537,-0.0787494208363495,-0.042895420190989415,-0.05420566046280718,-0.08516667931143837,-0.017988899882235117,0.011976290854680877,-0.05799707734300528,0.05823638283536372,0.015209679475367902,-0.09625253509344012,0.18482045407662306
POMC,-0.008906910876623616,-0.09469543378927087,0.0731908314425718,0.05381610595698835,,-0.016581971119274,-0.042526672649618506,0.024793110536058077,-0.030787710307944752,-0.044774852946177175,0.0041060741618334515,0.030209232136459745,0.06339210957008543,0.013370635974826232,0.08606292642528597,0.08223989021704267,0.02466955706611493,0.08025066060284136,-0.04548244548952818,0.02548152028857674,0.02166254811519331,0.0014150555264954398,,-0.013005689707545256,-0.04371313910991083,-0.014547385441408397
CCL18,,0.08408368155506861,0.09410987469544756,,,,,,,,,0.17451824092682727,0.10272894382148097,,,0.027639138104556295,,0.049752274881745585,0.06834463805603212,0.18934105977500698,,0.005762069318892796,,,,
CCL17,,,,,,-0.009868785904887331,,,,0.003355613374504181,-0.0171666569744203,,,0.020752405050621127,,,,,0.12479148904119702,0.052953507060548737,0.003532624902473742,,,0.04819312344623412,,
VEGFD,,0.03889534103874317,0.04619083805027049,0.00707484080517197,,0.024204693522178234,0.050785692868909764,,0.09846445061237341,-0.04939175011716994,-0.0032490595564421115,-0.015527717852248268,0.035879312111928394,0.041482997653239796,,0.004564705335555012,-0.048411336730097614,,,0.05163412623639953,0.03230553123065949,,,,,
TNFSF13,,,-0.005834750912139909,,,-0.022805477044974126,,-0.015506115996441746,,,,,,,,,,,-0.019113267770309392,0.015083445551158817,-0.002246598312970817,0.023178325831934857,,0.047063782605163876,0.011908689134807422,
WNT5A,-0.08391244885134574,0.031411538999730794,0.06626026266585815,0.04289335444268918,0.026812013375594145,-0.008669366638121831,-0.013956678086303532,0.12379472552087614,0.2731257559561317,-0.020025109759116158,0.035884274203160704,0.0028240901994970175,0.05422617588489951,0.07205349999815665,0.08422225268907381,-0.03623796026847006,-0.009054149721007087,0.043979896215429796,0.04698960777191725,0.03654396329875485,-0.00945857269567686,0.034960463664142245,-0.0007118839478462673,0.05119357777721198,0.0990342174623648,0.008345584312589464
CXCL8,,0.1119491812337484,0.10786338118727594,-0.01746522105699109,0.05288770550942262,0.17795938678959192,-0.0004100798467685926,0.02342295653875804,0.07699008097101985,0.04890444664177692,-0.002193659727001639,0.1341837202308224,0.039645590505054236,0.11498144381549319,,0.3212819054123298,0.08328837744812485,-0.07438814480963439,0.21861067551762503,0.17295148381640993,-0.003764400186434164,0.03916484493730219,0.01194838869223191,0.07268300385914563,0.09091562647324271,-0.055118523909191704
GRN,0.11867463989780495,0.04393979958957158,0.17325913267098034,0.00489306429506415,-0.059140114793284786,-0.05273176962920394,0.06102986419441404,0.13667196576571627,0.3538578999923403,0.007153628018001997,-0.008762441296381585,0.23709648916216572,0.011614128576997765,0.03675829050916235,0.11212107980713712,0.030744317320384556,0.1482617309883143,0.156127003670584,-0.006526180882937938,0.09721447326556734,0.06729625345352555,0.04037093386502587,0.12539400284757574,0.052142952692507134,-0.08894543360826523,0.04099435132042155
MIA,0.004639257962451922,0.022681041852059894,0.0563114720840117,0.07971408354927571,0.12898605486262657,-0.011730155308955168,-0.021684723679135175,0.0791284429937589,0.15537913965897648,0.11450622396025882,-0.01953547509857869,,-0.012499062879636782,0.052637132527393965,0.05286482745174512,0.05597199934829598,-0.003047787309689604,0.07436146676890447,0.03816600430622609,0.0646043341422384,0.08266787239016334,0.02430031865672405,,0.02269704852562851,-0.01762692798041994,
COL4A4,0.0619785776996362,0.06231925405115931,-0.03957357588404281,-0.019747530613421257,-0.013315461312785664,0.04351959369102718,-0.0606196462607238,0.044475099215518996,0.03659962451662703,-0.012557999227281104,-0.0044020795956262945,,,0.09310160033904326,,,-0.039408459090257635,0.08011846003652193,0.02322696273532659,-0.010780880213145638,0.048209623243118595,-0.013574471714089636,,0.012903194562545003,0.06290310935850046,
TAC1,-0.046792992995488274,-0.07914217803315322,-0.02238720640144102,-0.02829090715169335,-0.04404059728717344,-0.01024733370670475,0.036820922739154244,-0.09869649436467473,-0.24237753691873398,-0.09235749246337066,-0.02248160988219062,-0.1482562497074422,,-0.1894304494231707,,,,,,,,-0.015429520125003034,-0.029652456603469865,0.03857780210002504,-0.04605055436499782,0.014059267846922631
RARRES2,-0.2049932878656038,-0.026030684028081064,-0.15093876378918086,0.07602802714161233,0.05504065449312444,0.021320918477621624,0.006045729846965906,0.10672408797383336,0.32571123324680673,-0.15131660405987518,-0.03636289389981901,0.0680452076774906,-0.030398061580923,0.18917742830281756,-0.12623942682283207,-0.010084545072932041,-0.06387205476254917,0.024968360104159513,0.18427509467243883,0.15195117534608643,0.02850034639916904,0.06570658234736865,-0.05131460521328429,0.07798434569784576,0.12824633266570049,0.03404235634216583
FGF7,0.01127808176825437,0.02968891857870979,,0.018096216646468183,-0.0038194114555726443,-0.03713187589108617,0.023696865410074708,0.02100289710799998,0.09130727309834143,0.033886024137213006,-0.00934033128896007,-0.01240725751142816,0.09893148129642093,0.055479976865656415,0.0742576478166817,0.035234284982232106,-0.006004861992107451,-0.026317757617762783,-0.008293357862673368,0.04695277173863771,0.030246201193313355,0.003978237541294906,0.012412575809911015,0.09599103918092301,-0.013384143590654754,0.0045397362702941
EFNA2,,,,,,,,,,,,,,,,,,,,0.029488924854858233,,,,,,
HBEGF,-0.017140304075423694,0.040224956520640946,0.23663011992833205,0.0571315441537908,0.11407195524445009,0.04209855957819115,0.07101738245605606,0.10927306006160767,0.16516528289955695,0.1385666240038224,0.006582943659446652,0.1464285410755606,0.14136821250974324,0.05639400392969463,0.1302925197898141,0.09022674631620077,0.10448533634736855,0.04904215882547081,0.07362413927266444,0.1859168528845592,-0.035409119667511736,0.07464601665878305,0.07067140810430933,0.10789019846858541,0.10689259296033368,0.07629312586953398
CSF3,,-0.021330861454975186,,,0.12579836938597216,0.1249397016808234,0.04861055717003496,,-0.019208100674792002,,,,-0.010072071867994943,,,,,,0.21127772119370503,0.1928429408156005,,-0.03046764979015198,-0.059574514820921694,-0.01719711692548455,0.08541723722902615,
PI3,,0.07211392293723566,-0.034367436922925404,,0.1280034385623477,0.13966016933132733,0.013900255531210834,,0.011253300457696798,,,,,,,0.08000124981272302,,,0.19725960536258244,0.15785412624631517,0.018006544987203776,0.052764154368938894,,0.10157866560849137,0.09945740424425661,
PCSK1N,-0.13829008899148434,-0.06518835588420054,-0.08022507322205502,-0.11799084143962223,-0.003930245399451979,-0.15678934752888893,-0.01909303367194072,-0.06499985302323198,-0.12675952342562496,0.05347336459695884,-0.057407029568345556,-0.3029530553595336,0.07358105238634609,-0.14197515006687692,-0.015382568630606795,-0.015171092664670848,0.008435449490231041,0.04669264728684704,-0.0676521237705156,-0.09696287030580229,-0.03994834158887495,-0.049565786729590874,-0.012347841795514174,0.024077237578615525,-0.21688130691494661,-0.028489299731528167
NTS,,,,,,,-0.005624750795413776,-0.026685020634261678,0.04491048454739901,-0.01980972668797452,0.06874390990413241,0.05258332251117305,,,,,,,0.04989338344001525,0.030451756418741108,,0.0698500719017649,,-0.024786866813839237,,
SFRP1,0.030586629648993113,-0.06374301284203847,0.026289739160734002,0.022114094231365993,,0.023707897025060477,0.024437068963935528,0.05559771654726032,0.07780075768454732,-0.00991933291875231,-0.05323806376469322,0.13266022360055257,0.023322816253238173,-0.007816560834019921,0.03946387557776082,-0.1407898182059616,-0.021930271158405335,0.04709510097922686,0.014362111748493491,0.03810346662268888,0.007841412699279309,-0.011993689561622075,-0.024664609202762325,0.025339149901167958,0.09491793976608286,0.08846056864974158
CXCL13,,,,-0.05061063732971103,-0.07847620750711296,,-0.03708351163039118,,,,,,0.11426790676234486,,,,,,0.10273314356357949,0.08636321062846627,,0.12735739511856622,,,0.03140441396930498,
MICA,-0.017237003871275424,0.13441784870228338,0.19180753146958265,0.05818362593600839,0.010385934093793433,0.02806987186828436,0.05334523478994094,0.052998243910522526,0.15949833628340213,0.011142465219135735,-0.02422695244681114,0.08037715864567482,-0.015588460693381996,0.10558790263321136,0.09914293041430883,-0.00034504604781652976,0.10080380521775513,0.13222388091101442,0.06944661056434666,0.055613033133447815,0.05180994764746562,0.043781932642801,0.076347343748136,0.05756116814680064,0.16184900286379644,0.043978540627150085
TG,0.008772272995529086,-0.02287345142924755,-0.09169707562730514,-0.03169273958167078,,0.01781683815200533,0.026736649499441816,-0.00564052597868611,0.031600639595143865,-0.015019234633413594,0.004420535479216347,,0.057408990186384436,0.025078556099825976,-0.02962182210364102,-0.012373970067915999,0.021951954168271396,0.06810280142803637,-0.035546662746295775,0.037374965242546174,,0.013738788786470835,,0.02459192336939854,0.076839819522513,
ADA,-0.013074907694669555,0.08242364531127072,0.13377981395038294,-0.0763731013174545,0.04648721157151124,-0.004715143492262475,0.016992138917210683,0.14364927841254388,0.23327579157986908,0.02593231865698151,0.06337221029430888,0.21957541611849984,0.12354605268188525,0.05675455444995192,0.09343530557791432,-0.12259412334841542,0.09126779634765857,-0.013999523900960044,0.04912426364634881,0.011444080646345558,0.04718258820203234,0.03653616598961253,0.11196654958464321,0.06752476010850503,0.054005726364509773,-0.02500633508664891
LAMC3,-0.05375257250622735,-0.043771027992282004,0.28127030114615936,0.0291006706410722,0.020711422393233408,-0.025647135960387906,0.024845291970744227,0.1616066535760779,0.23924657477713507,0.03421456264563614,0.08736987333408915,0.06063614757486937,0.0586221745797902,-0.047523839372562764,0.22515421768142363,-0.08249218632082415,0.18624486560827616,0.14416639138747422,0.010496613742623428,0.06245587080604595,0.04393870626307112,0.10252028043371138,-0.034128526910239834,0.03939002236257632,0.016994223256247224,-0.11364317502390886
CCL7,,,0.011961300221568756,,,0.013869051428249665,0.008522073906300897,,,,,,,,,,,,0.11048421607713067,,,,,0.07314534244900575,0.08029541458107245,
NGF,,0.015966574484829427,0.13817941808316803,,,0.0736864275455145,0.06088488357786179,-0.017295675489936383,,,,-0.07266579252764714,0.0945062201828965,,,,0.07531935061359658,0.003409746937191897,0.044856807828309496,-0.020424445016906784,,0.0684121010264299,,0.002952044428381358,0.007095586802468628,
TNFSF15,,0.0804085010006713,,,,0.028065973796538617,0.08566999659854622,0.1489284459328967,,,,,0.04559880905284739,,0.06410150085309237,,0.006347691001051859,0.027284776020830945,0.004280179289109834,,,-0.0009030516311223195,,0.06410941087634756,0.1306464294523433,
HMGB1,-0.0028204393974223035,-0.10875931396151274,-0.1725867774059755,0.06350671035036419,-0.1101963569395918,-0.07157811459431962,-0.08489457238013826,0.13008168856438607,0.2687392206518786,-0.03352347811306917,0.030905553193439857,0.11370453242886779,0.14631591841006145,0.025829696516832937,-0.0670576526707809,-0.16672416910340432,0.09618895640934438,-0.006168723759497924,-0.20226677225592923,-0.07760600114965964,-0.05746198074412005,-0.059750189087969606,0.017033993287451178,-0.03744683942086807,-0.08830824561250405,0.10712156895219276
ITGB3BP,-0.04800917950051952,0.05970017383010368,0.008926069268280101,-0.009055438432017024,0.037668279500171604,0.013897822447238752,0.02220041778643925,0.13157325322736324,0.24454382093497895,-0.024061733874315008,0.01640449144013698,0.059707356356697015,0.13100724658129986,0.18900248133451494,-0.04121498875516698,-0.028990255967798837,0.0676915550930762,0.008485862711381647,0.03177150884525815,0.10747554393292101,0.008197901519040963,0.038199141061837805,0.06677484976229414,0.06254902675501287,0.04218073197250696,0.020815194153635332
AANAT,,-0.001231497042581586,-0.020164218496040505,,,-0.0017050622600630486,-0.029548485577326502,,0.007760333440620109,-0.02910573937207141,-0.01280662839746275,0.0076014132755987405,,0.1125060378940284,,0.036869446363638717,,-0.005943789761008063,-0.005679845853656007,-0.03514989625355382,0.1139934840722199,,,-0.0034334885754837077,0.007667302885266326,
RELN,-0.05155324817089888,0.0023642581183653728,-0.10972856647090024,-0.06435311791954457,0.0490834995389597,-0.04220120924348759,-0.022194298880272207,0.004469479765811577,-0.12277680113370522,0.005604840435782179,-0.0643380841226077,-0.00854381220808197,,-0.05657857864434314,,,0.12034058743663929,,,,-0.008335605892888237,0.0013993339557519385,0.12839147167245948,,-0.005692893100781871,0.10391348381355904
IL15,-0.04295165206011993,0.06450038205611851,0.07210387748295906,0.004819318811137972,,0.006177492450325438,-0.04194206495655464,0.047577598193017843,0.07385892574084468,0.06900172112922713,0.010529302475447404,0.040678788174481235,0.05751718511919967,0.0354838819169983,0.04435204790171574,-0.02225851198173783,0.033189556891645426,-0.045649867252941005,0.014192196062435046,-0.013294718951826002,-0.04612061514104313,-0.003180548066205737,0.06578453601233801,0.02074612008011953,0.0826651996105652,
UTS2,,,,,,,,,0.1376682388247576,,,,,,-0.012407627594476505,-0.04411580397221443,,,-0.052217902243722775,,,,,,,
BSG,-0.12129756266734186,0.06951602831083857,-0.036650196124410644,-0.029766701508102837,-0.06489069479935844,-0.012942048774346649,-0.027413654381190335,0.050177400805449385,-0.07013697123033755,0.1927813211776296,0.048276092306146046,-0.15370428584698745,-0.04254961161177695,0.15497596283656132,0.09227763323482224,0.2381336176340834,0.09253421933514326,0.04251067785506966,0.2484579847133763,0.15077979096727004,0.06516571333501761,-0.022710501820309235,0.12145797022906106,0.0860394409142978,-0.002154331398222977,-0.019268129842664745
ADAMTS3,-0.06566168482996608,-0.026058265341671567,0.0873234107419307,-0.014877968323767083,,-0.0612344829380426,-0.03226407982802977,-0.008579873215979873,0.2676414049883973,0.005389242332137467,-0.003457768099425205,-0.05842833858075286,0.06327604463982264,0.02005726460511035,0.11257474005000756,-0.21891047757537582,,0.0015617794559929015,-0.05469148629736261,0.0040708450419448495,-0.00211190873516192,0.025280306901182402,-0.011275009156674471,0.02562149173280576,0.03466862685570774,
CD34,-0.044979061460918575,0.01659989874658145,0.22270588131346578,0.023776872243173465,0.022316242256334995,0.028710965430520093,0.05689023513611639,0.18819528538265043,0.18102094585793155,-0.0003119369451098629,-0.008910797061914324,0.026069716805083874,0.12939762370702637,-0.013378019241622357,0.16218038044635139,-0.11045872323463116,0.19612281337221107,0.11675509124901805,0.02435009243178591,0.04834845923193563,0.007843360369647069,0.09650487392203064,0.12893218787102675,0.0915826189832957,0.15849393784800567,0.16517615556021903
CCL23,,,,,,,,,0.07252933020957607,,,,,,-0.013694976074449932,,,,,,,,,,,
PLAT,-0.02428605552368788,0.04548612580428369,0.05670283052750007,0.012973560383045637,-0.04450346664590038,-0.07065293537701499,0.026169555560134488,0.24044721847775974,0.2679040106017777,0.11754362092480683,-0.02638527681824632,0.011849616711218756,0.009144249185031766,0.12084486544509908,0.1290774980357782,-0.1701894040584946,0.14903286795372586,0.13173954415020964,-0.08516796989393803,-0.08013940502642983,0.052118563516570036,-0.08567211236219908,0.07727128746181292,0.07198287745660586,-0.09463663545426249,-0.08182538843464673
NTF3,,,,,,,,,,,0.006041173191789165,,0.013045524830207444,,,,,,-0.001811732341544588,-0.06796317946767533,,0.009888898173740312,,,,
LTA,,,,0.027242906745288436,,-0.004500348226102114,,,,0.02838924571945008,,,,0.013892571905815077,,,,,,,,,,0.007445853513121797,,
CKLF,-0.08614662693744062,0.015681493588798237,-0.00696717904389919,0.08090986444162492,-0.011633919066490419,-0.017608340444358803,-0.03390316668050164,0.19113448269971353,0.3882971002510325,-0.04112985439101535,-0.008111191514384301,0.14964298143142324,0.12105134095827766,0.15847852660459388,0.005379817609014099,-0.11465210628177015,0.07532816867386187,0.042514989136944716,-0.09390098884748985,-0.0642973053910992,0.022353974319193507,0.001331341540719506,-0.04179572119370954,0.05131309226719814,-0.007622419954893788,0.02478984607883113
APELA,,,,,,,,,,,,,0.05621432782984077,,,,,,,,,,,,,
CD24,0.06307002048184693,0.12861777198201896,0.007658538892699065,0.09043933646850479,-0.08484750670933582,0.10988647647522533,0.015844868444957805,0.00874573878673068,0.04247404047926405,-0.2018356547653314,0.08296256793603723,0.03812295817753569,0.14164743916219993,0.09794710352951151,0.09048722736999883,-0.17107937400466122,-0.12978086954001763,-0.00804481949812982,-0.1800977573463037,-0.0505009014681052,0.027768438068043647,0.030573785233853654,0.11330518447853373,-0.004984908858577303,0.0012326624187934416,0.09023934439189585
HSP90AA1,0.169628326859289,-0.0755669429037588,0.015995392408445695,0.06523332959945753,-0.044205357850018605,-0.04265576904951288,0.03223725332270497,-0.20031266524990557,-0.3181617312855759,-0.1570352095238554,0.02241137551686488,-0.29367162112199435,-0.023075235581602047,-0.20671019789836495,0.03756027961260725,0.24643965490849645,-0.08707980947943214,-0.10279518689782166,0.20211962923540244,0.1263442726982391,0.014180379680973649,-0.02288563178903263,-0.022380434611597146,-0.07138859955221806,-0.038854046978487364,0.025609793121599556
BMP4,0.012596952841006795,-0.02975271104925395,0.052795035420396555,0.008830639225831568,0.04654374468886657,0.08221521506647178,0.07095305551697144,0.17999165875559772,-0.06343031546925208,0.01295289789089619,-0.042414383308233064,0.03716341546320995,-0.007043062955061765,0.002351922504057059,0.19706579421100948,-0.09454272626343664,0.018086790788625563,0.03968971292837119,0.03783904102710991,0.10526195018444642,0.028967675839651735,0.052473300049033396,,0.018017226277106415,0.04284192710469245,
SCGB3A1,,,0.022160928493076132,,-0.01883161056868824,,0.006087246369688188,-0.00379272827708333,,,0.054750897835121035,0.04264221897643841,0.08819324742293606,-0.023900741844597086,-0.008168828028866088,-0.02236652018134822,0.014940036204943993,,0.02734411385376127,0.025673716391883886,,0.015875621914670377,,0.044674753043499056,0.07624880117711853,
IGFBP4,0.00809815076558984,-0.010371249647226601,0.27657666011485993,0.06592817437100139,0.09583578754510476,0.019333054483460566,0.051836197789380756,0.23277142371180337,0.20996209516327058,0.04677764385661274,0.021255327580558106,0.12061376493071399,0.12285142693651514,0.10343126331063024,0.1934429503636136,-0.09091337026490691,0.14138258752505065,0.17384512072590677,0.01359630179810235,0.03508742858621827,0.06471324965693487,0.04985541593872151,-0.026701145272070934,0.06182118418543672,-0.0028323338906656587,-0.007299514346356217
RSPO4,,0.03021915843514755,,-0.029307667353580046,,-0.013807231209806058,-0.02239736718656865,,,0.01638703607166178,-0.015067357841952247,,,0.020829971230843798,,,0.0922714362649051,,,,,-0.035069112280506944,,0.0375742374832548,-0.029398033963091073,
LEFTY2,0.014705548357495329,0.006918966389011992,0.21999818358577058,0.0362223048810903,0.04453068154092992,0.010802068408926401,0.067331028534623,0.19898193947360665,0.28224729792600056,0.0021138980994453013,0.02439664977238637,0.046185466977155275,-0.006851186560262511,-0.04151267852504989,0.10504523747703533,-0.2308088411273922,,0.07851947242633504,0.03328515229644271,-0.02698259742021455,-0.0019753744546036566,-0.04423478919021565,-0.005448545357976694,0.01512261748426732,0.03704019570677048,
PF4,,,-0.003222565246589152,0.006696398348319136,,-0.006967785864244561,,,,,,,,,,,,,,-0.03832063417030905,,,,-0.0026620810354005308,-0.007911538658352375,
ANGPTL2,0.015848126322184197,0.05158630997962858,0.15197411520332518,0.046807725023851894,-0.06652698352709843,-0.08545107035775328,-0.03047973677680801,0.25281626563170095,0.27224025423530196,-0.07145875216483187,-0.0015353505830611523,0.1742024343533494,-0.034343686886780696,0.22968307078380878,0.07052992307567686,-0.21484979270418553,0.19957088014860622,-0.010223026211634812,-0.07636671249748132,-0.06850495756057692,-0.027269402746486666,-0.06389050060835125,0.0815254395564079,0.11655051799864027,-0.12466161548425139,0.0737013888350528
LRIG2,-0.054031766753908035,0.030784580771968117,0.020537213686619153,0.05727289496352027,0.03880062959605925,0.010082345830224725,0.016495837499275565,0.11823456054199238,0.1065820329568221,0.03291058726503081,-0.006143461034693547,-0.01900285217589883,0.11601038989642339,0.07283817489967127,0.08774593314145346,0.05140278630027339,0.014672640405002461,0.04895926343612992,0.07084302631828339,0.14506561380541755,0.062083703726466447,-0.003923922362736614,0.030344139066817388,0.047174317852666264,0.02960789785854145,0.1546989202929897
ICOSLG,0.06885358182721818,0.006284128515578484,0.04910494868402976,0.05418414076380712,0.07463747105194055,-0.0025941152757508012,-0.0646115861789315,0.13796238558979715,0.20044606096892506,-0.05381211079191085,-0.01486959716112828,0.15478679088485425,0.16476098402264447,0.11914764221019404,0.06903410883526047,0.10896208896638247,0.1201653961979575,0.10179038507127473,0.04302100402756319,0.08336101104233319,0.04476712606830058,0.06034554138834654,-0.048508558519089036,0.041961498911206915,0.047591578293855644,0.14518179653051716
WIF1,,-0.13696894360857603,-0.04714776150709443,,0.055340605584105695,,0.0005417177861187124,-0.19437935175428206,-0.2847139310553692,-0.011972349456061999,-0.05341455858810838,-0.2046057180947959,,-0.15563145091851527,,,,,,,,0.037043731600776876,0.021559586378058892,,0.07911778339284281,0.002739381679942381
NPPC,-0.06477551607017216,-0.016166174573861443,-0.04338770071766866,,0.06502639321511322,0.05418275864386736,0.04221571201056986,-0.04450245817260267,0.06068950343688165,-0.03420701909164082,0.05576201201534393,-0.10558304818307021,,0.18683113399376156,0.05803634170731226,0.05121413241292003,-0.03551250125758792,-0.0043417684388362505,0.06169417091729062,-0.04767268257959775,0.04548626499390714,0.05207539649967976,-0.02421931350635589,,-0.0010153276101369552,0.12268082158077351
LYZ,0.1718366006889278,0.06467166170631562,0.16978358433347995,0.06052981527170728,0.06927752176754402,-0.012390219871986134,0.04044026544761928,0.036881057909531265,0.2691956714013473,0.060624181957969495,-0.00012013804382427789,0.2963357670747955,0.13219361796278686,0.011500832506812565,0.11671174963051516,0.14740245191229912,0.08621902260404803,0.11128472117430158,-0.01879192272571778,-0.006876411458436149,0.05486069631548429,0.06369315834229981,0.007339283569495314,0.08134654558607726,-0.03000303529223112,0.03178516797125956
EREG,,,,,0.03077478730036067,,0.03338449572234144,,,,,0.02637523217862297,0.05541074533956243,,,,,,0.15036332515845086,0.17391304001393906,,0.07182769612341418,,0.002746469161095388,0.053127425885572115,
SPTAN1,-0.07041577050154614,-0.09612859539853111,-0.10306570364580568,-0.04840298019759048,0.009305043065036756,-0.1337659314307696,0.009428135588894994,-0.09333962475877892,-0.10174923323708375,-0.13296589488037128,0.06586981546943169,-0.28984447891416143,0.0730869160927125,-0.12840458813654973,-0.042882043652508105,-0.07347025616343324,0.08136143412378558,0.04630195776686328,-0.08572036089450617,-0.0740167921524067,0.11082232919187951,-0.06906642489024704,0.04459932974910707,-0.07420758420999639,-0.08744644592025909,-0.12900075860476182
PTH2,,,,,,,,,,,,,,,,,,,,,,0.0273501725974661,,,,
LIPC,-0.013969698229579577,0.030404387226013647,-0.011233895964981245,0.03504744588647226,,-0.03390121810979439,0.03417674157242717,-0.06293435826784978,0.08422832219845179,0.034433234769082714,,0.02031631895674837,0.03851872934150387,0.06347520431399528,-0.016373689183380447,-0.012670755448424158,0.014854486426373237,0.0763171665225129,,,-0.0030266227411275405,,,0.019137837970044067,0.09360090806238117,
COL8A1,0.14811712362927446,0.09959670730312147,0.16212096261808123,-0.0014604598936660185,0.05879119920728208,0.0037169090128483227,-0.011315220678845571,0.07284673335018524,0.2009887487453813,0.06356205233715286,0.0005044473290877713,0.16413398844541835,-0.1297287672584971,0.17651912343119067,0.15600220571081477,0.06577280862442282,0.0900937525403866,0.10182693207803949,-0.017565252677524124,0.08925486114989128,0.09103290489997903,0.040288146917651216,-0.014476337507235168,0.00986271124263493,0.1308610719559978,
GSTM2,-0.005881278580037157,0.022567961482383655,0.015912714322659127,0.035731110610960105,-0.008436458688864138,0.04086426779794226,-0.04315294184917915,-0.03382340027468083,0.1299933394819124,0.014481888844517303,-0.005093971755733398,-0.041919084792664554,0.042033875586137484,0.06117495556606007,-0.06714752542373349,0.00866946301757817,0.028195329703016216,0.07291063270434604,0.06455934868332085,-0.015791486519979556,0.012248075658653833,-0.012840482637767693,0.0174571294892449,0.05797607058826021,0.04215197871736103,
IL4,,,,,,,,,,,,,,,,-0.07289032958705847,,,,,,,,,,
SPX,0.05302245624901221,-0.06520927785773556,-0.020062333704028424,0.07821708077951707,,0.027710575703893573,-0.051293359492907135,-0.07545888092718804,-0.0844550516092782,-0.047824890067984564,0.023885215982145068,-0.045881863282322445,,-0.16881551704426326,0.037646429461663904,,,0.03598469733475762,-0.011373888238583403,-0.012685183378126024,0.018016153907650007,0.013074859024772163,0.06653857447182862,-0.008790637784720425,0.10880671487435953,0.18855523774439753
MFGE8,-0.011800768627844582,0.14836406929800572,0.1566245997452812,0.019343932164617432,0.0493662185887768,0.027680953146101302,0.07535828260316377,0.10094098465595121,0.17389326978571384,0.10807180140588325,-0.018301934246989688,-0.051961945626534646,-0.024662513387978476,0.12032034319980524,0.08010137400539279,-0.07642164558274951,0.21632558504483554,0.218115590346257,0.15319433297533802,0.1397502735986114,0.07223866538482522,0.014417030204358782,0.13336073941902896,0.101956739222313,0.09919825358603482,0.03359883924884975
TGFA,0.13829722920147705,0.17179042170014283,0.00650439460836563,0.050096013401258875,0.07802014533889884,0.007755349470574781,0.028751359162616848,0.11244994423093733,0.15911665334353745,0.16318300078868536,-0.0011406645157865602,0.08360638731098326,-0.013290056012737814,0.147482202974093,0.027002901782961924,0.1701728269660518,0.004368245657942333,0.02604933244240454,0.03516937875274695,0.05845733056260714,-0.010240705115869523,0.005773337899715105,0.11956527114502441,0.03643862690941185,-0.005695868764386901,0.1118555793246446
SLIT2,0.056096032306269646,-0.12050950038666386,0.11457120706321706,-0.011725251417528447,-0.011175435826189488,0.00776298684924856,-0.05406596414224057,-0.0028989177422835475,-0.11192282107538887,-0.0790251551880255,0.05024773675570133,-0.14533390093837179,0.05208127806002301,-0.19150494892967018,0.12225298733351238,-0.000390727657539143,0.09648145615034065,0.06219643466510884,0.019633893777516336,-0.04293066674800857,-0.03748254777835537,-0.004754643313811093,0.08219878027637988,-0.011565288731791898,-0.03904087539739292,0.03953917463961008
PLTP,-0.046782832888885025,-0.031251336252485225,-0.00811528450752527,0.031626413452233035,0.025868156794973375,-0.06429569076892411,0.05090361171184604,0.09512882468289736,0.2879733058151795,-0.09443509689309802,0.08620848680176008,0.2636636858520525,0.08331239401509932,0.01789373356968807,0.029567892436587893,-0.07963832676564878,0.05446031714281977,0.0020655595387071867,-0.04726738385892315,0.033436199572674935,0.09774009344645089,0.06372540989457605,0.0341274836868015,-0.03930208703980584,0.04798101927198886,0.09814381093571072
APOD,0.1838680971364502,-0.17278832265519115,-0.1250309457920354,-0.10200343720844342,-0.16528432250992797,-0.074084436805864,-0.06148440026997582,0.03154475014185277,0.2415566713687808,-0.12990318801965303,0.03216217930890492,0.2602699424393153,0.07173381567788557,-0.10866086557690184,-0.09120891074139467,-0.05253744265322527,0.07615777064023065,0.00923101997351234,-0.13305462099661422,-0.07216520146650089,-0.04091597492528835,-0.0462856401438251,0.02603559852887476,-0.1312648249787114,-0.10770794570336527,0.14834403653001035
B2M,-0.04121311114849273,-0.05183702090727122,0.24356080851820874,0.009698057473766656,0.02836150572123122,-0.03346223352221623,0.03956482173635664,0.23421219749481642,0.3800854644755046,-0.12395766613991711,0.035123448871969096,0.36540483549464664,0.24125671003013763,0.2171428103346097,0.2605599984703789,-0.15429183336574795,0.2687007959027931,0.1402477084107995,-0.02529994604915946,0.05028300575367859,0.02051055824096267,0.05741043471169951,-0.024281531528732272,0.029617285791940062,-0.11810591825937769,0.028868979045805855
OMG,0.05537542528705661,-0.07674445132446334,-0.1932450398101184,-0.04265314950683057,-0.04739460130961831,-0.10204583536020159,-0.052590740570846735,-0.004400783500520123,0.025389947469757576,-0.18080078756037044,-0.012970934584381585,0.07971774500044376,-0.019619864771155522,-0.1241305341479553,0.028350157037351616,-0.14572964094216156,-0.00036256444808674594,-0.02051036899621717,-0.1436595647987044,-0.051033066653608565,-0.027064412789821336,-0.06585977551448027,0.046172439082257315,-0.00016164407737053092,-0.06613710625713787,0.06387841254820677
CXCL3,0.020731055504376785,0.032934376915011616,0.05973370362935859,0.0007905288274000036,0.019475227155413288,0.09812277589315936,0.02380884873924829,,-0.03731508951440812,0.13950545214454352,0.019906470425759513,0.014299411162561075,0.14668782953164983,0.003325990679342704,0.022637794591167913,0.08447768456593482,,,0.17266785105007068,0.11422869472916002,0.08400600105214438,0.08883353943179402,0.013224263140914086,-0.010873279352799537,0.11058042806473584,
CXCL10,-0.08102260623876001,-0.0707984020362556,0.0666863417592309,-0.003824336946824008,,0.03523899602465979,0.006480078193515059,0.10737166833038939,0.29630510014692957,-0.10183765915774333,-0.020983019819646346,0.08616179314816565,0.015175626131134037,0.028495415585817505,0.026029905071107657,0.047785009624283455,-0.10331639489162536,0.02677161910765942,0.030284801481125747,0.05623259016223502,-0.05511490801134877,0.0029616725670609224,,0.0003816918333222615,-0.00381297301038185,
RSPO3,,,-0.012775415626143689,,-0.03710413563965725,0.06537426575984306,0.03976760746819584,-0.024761332399565236,-0.09549474628632575,0.014960032338945889,0.052665907312390875,-0.07995600610291308,,-0.09219414748681727,,,,,0.07397642007036943,-0.03990413128432735,,0.059224322246380655,0.05031389550955447,-0.008450021634308342,-0.09192787599927214,-0.061881264718998276
CORT,-0.022285204615168402,0.021622835050645307,-0.029552605755469495,0.021230663219880697,-0.026949187484896074,0.010029618688802566,0.021352507271040013,0.01924115034695492,-0.15508313099115573,-0.01159555580010846,0.022397801219356653,-0.03804770961406561,,-0.02846541985259887,,,,,0.04848773178523337,-0.008208473456804123,,0.03658086993920194,-0.02972442522319344,,,-0.019850568483185043
NCAN,0.0484645428237649,-0.10537335466420268,-0.06045950040857804,0.039305528871806036,-0.0666410898222767,-0.13512912461160495,0.009502905522601694,0.07838882682783332,0.1360868521384761,0.07835670164369772,0.006014651183654527,-0.1823114838265266,,0.15663930927005099,-0.0778057987344367,-0.06366129134140679,0.13465432423207152,0.03840832540785828,-0.22821173914192713,-0.09781046548253668,0.03353848676314114,-0.13087056343052036,0.06887209225579627,0.006669466171061343,-0.07280915502232435,-0.06671532197876408
PRG4,,-0.008528724689956463,0.05010124229289182,,0.13072215473444843,-0.029665473110941035,0.04854273648048173,,0.04595659655541339,0.00886634414963863,,,,-0.02101490324728073,,,,,-0.006271078388813164,-0.00615649803933199,,0.08040532636749713,,0.021082314938633762,0.014826260552698084,
ZG16B,,,0.07229665931647557,-0.013951308007815199,,0.007026409331950486,,,-0.03626873634675077,0.029761425404836082,,,0.03623975563097302,,,,,0.02860125856578732,,,,,,0.04217668315748133,0.032248892709503485,
TGM2,0.01880122116805891,0.039001208528081366,0.20670044629565637,0.041707381242653004,0.05590249801579776,0.0665684095250782,0.04256937714079929,0.13277238476854145,0.15344466243853105,0.05089769109778075,-0.01063224995218663,0.03907339612243647,0.08381187581337741,-0.071714177037423,0.16995391906268215,0.29987208725641706,0.23873206212155837,0.1084736268942947,0.14254011383983908,0.16035966153886372,0.02059809190429899,0.042066807871781145,-0.008220639974509303,0.050558467558821124,0.052137514958360706,-0.015674403072572462
VEGFC,0.05619399656959993,0.035532078176984956,0.03046649533646373,0.045229827669475586,0.06741537107956576,0.08238327461760234,-0.04628174518821897,0.07701191934706644,0.039572734149949176,0.0030981537557743474,0.061031641167798446,-0.047591409861859266,0.011701237245505198,0.013541675868818135,0.09220240953169137,0.0866328945879328,0.2141197727010371,0.03794264804707804,0.056104811714678716,0.07973564856068632,0.003400552474225849,-0.01366710598015176,,0.05566688847382604,0.08126029730229274,
WNT6,,0.08209565514331273,0.02849245133012956,-0.001764954505525382,0.06202858048917114,0.04762692153913918,0.02835636944019208,0.0055588457732596635,0.11073631044167856,0.025982795960159802,,,0.01702259869027929,-0.005251505061726022,,0.05978040429291652,,0.0492997223678438,0.01737167202268201,0.034906972175109956,,-0.02635652625026706,,-0.00010528485002144644,0.07185329610309481,
NRG4,,0.009409677228381009,0.01744291577977566,,0.07901631730278091,0.044321166041590455,-0.031119906167198542,-0.038842096968164264,-0.003105531363884625,0.05735220203872178,0.00125792510480221,-0.08467784864859566,,-0.03932184598637481,,,-0.04930946285046478,,,,0.02542777242107776,0.04408415985441543,,0.0385957186576204,-0.010700619090819267,
PMCH,,,0.07568584910264448,,,-0.03499812277415068,,,,0.00024551128507395307,,,,,,,,,0.03504918412015912,-0.026195613524054327,,0.034171778804643387,,0.09675012009559096,0.03038979871407965,
COL9A1,-0.09008241864888936,-0.06804657892484622,0.13011135889818834,0.017585712936721558,0.023912677673330617,0.0016896631233602368,-0.03558514711521993,0.15493403775755557,0.11846408910918753,0.027088569916819367,-0.019656326553934768,-0.010164855326639716,,-0.08365581150175722,0.0863971551810485,-0.11578514264811976,0.11658154394563773,0.13124175221810025,-0.14892080183085185,-0.0651946198856233,0.04390224412701524,-0.04582018920705352,,0.001164844848998204,0.004000514537452885,-0.07927282963478408
GDF11,-0.01840517074650727,0.023685034494299064,0.013528644048696515,0.041871474807135683,-0.05912690461814066,-0.02979078853053268,-0.008589230140992435,0.12383745793276241,0.21800054706434185,-0.01400665286940483,0.05947663847700715,0.029403448553645132,0.05071193940684616,0.1223177704490389,0.12601441483280076,0.031190209975621327,0.10284844046783125,-0.03794315967454517,-0.01450365565607189,-0.0014552065521861687,0.05450780298774319,0.008823746889365361,0.019671815213721654,0.137006726292236,0.01083675998174156,0.008291287735702542
RAET1E,,,,,,,,,,,,,,,,,,,,,,,,0.03396275251126579,,
IL24,,,,,,,,,,,,,-0.03771666469675151,,,,,,0.12233910153066553,0.020540972163259483,,,,,0.12046560017052224,
SORBS1,0.02636736518848409,-0.02197372757320279,0.12959781872737883,0.006623650505532115,0.03175426691376896,-0.07689963669341815,0.02684448335823903,-0.020307243273590823,0.05460707028329352,-0.0338062628999477,0.008196086737399,0.1083419976120942,0.04373572647739576,-0.015441588502529947,-0.006470896760583485,-0.08566205189005312,-0.008933596523079288,-0.01268857869188789,-0.02139292392081133,-0.0547450907607016,0.030492724160076003,0.06492531829062624,-0.001001101280478303,-0.03002963564995631,0.050557994745269855,-0.0009196888018098849
DLL1,0.04118048065676215,-0.13545590530075557,0.03536869970713873,0.08776944295130733,0.02547720816635834,-0.057047222552236494,-0.02997278136243383,0.15196935453967297,0.1931567978271717,-0.0968387168313158,0.005001280962011549,0.07643043580935703,0.08072074609740906,0.1159018322699771,0.11192924468038347,-0.15875773840164653,0.10546934276690303,0.06476407070682696,-0.11242592105082298,-0.0829063201626863,0.041879227271582435,0.06024136808354955,0.035278674758677804,0.070484816554898,-0.005953003881332552,0.013096778100056123
TLN1,0.01897963966421836,0.13677266538997307,0.1913482788866271,0.12065029315320276,0.11715018017832139,0.02026490860423797,0.06747210383303302,0.19384070786226976,0.30264022187237305,0.04267218068783745,0.015787533052060716,0.2424804315466124,0.0662727269175427,0.2358388573125439,0.25613142548843243,0.19449564900567623,0.15103658147774998,0.011437280957346588,0.08620835414561866,0.10982123643247613,0.007182624084082259,0.001046298817024275,-0.040571096691193964,-0.01992934221109346,0.06525942735595759,0.08073749838677702
COL2A1,0.03669605541509959,-0.09500080766509499,0.06377391810284082,,,,-0.03757070015565045,-0.008562391471831216,0.0066283310641916185,,,,,-0.0058445801918425196,,,,,-0.018786761430689632,0.05899650671095611,,0.03407605426597382,,0.05529583042942251,4.041265120682362e-05,
SHH,,,,,,0.08599697825858026,-0.0056370533919155195,-0.019157754371805055,0.04619711400294103,0.13571659632204106,0.024532850037073308,,,-0.04391142922625682,0.09734257307671029,0.17143154811175132,,,0.17364364581087205,0.03276572625565835,0.022204901504458478,0.006922866069535466,,-0.008329890211744507,-0.022425772858788655,
PON2,-0.03876012306959137,-0.10385980049849179,-0.08675481892147434,-0.09126832089152556,-0.08651729224835557,-0.13168320098842937,-0.03877201499707599,0.08387210265572462,0.3233682617284799,0.06807974707970608,0.07622685338899375,0.11272478250239394,0.1465804333101059,0.10430047002667127,0.11155427218249611,-0.23997016844376898,-0.005362655717152592,0.04946493090180268,-0.023784862863386342,-0.04720514120775886,0.119628287582448,-0.02876601202180358,0.03895303367406453,-0.09485864150183464,0.07847325577983233,0.07722714412167951
ICAM5,,-0.1828895217991759,0.0440902849638656,-0.06037043628749645,0.006371647233612526,-0.010455772030742482,0.012614754828734585,-0.01817145568388551,-0.1529960478439768,0.015499014429983901,-0.029384180391325166,-0.13516301284559612,-0.012730523678769087,-0.11885470136649137,,,,,0.01914739011498989,-0.01846427996383252,,-0.029814011303383677,-0.0045946217605004015,0.05296405569445455,-0.020544367993270644,-0.08503457642960431
HPX,-0.010443635418091997,-0.01192231731059918,0.06346775942431399,,0.026547665134197335,-0.015027461845144153,0.014911940717069905,0.041302459900288295,0.09301830254226769,0.021658546703408072,0.05483110054107903,,0.04375850071829737,0.03375125641243028,0.06438664510660409,0.07196482115118603,0.0532454846652182,0.06830497489883333,0.08338355981211813,0.015956945458451166,-0.03270474041767626,-0.0033115137419346273,,0.02996415724331226,-0.016968251266020973,
SFRP2,,-0.02466528523354922,0.020236600142689982,,,0.009290309276008577,,-0.018206390037130905,0.009966318275757663,-0.014930995620683146,-0.03194476543707721,0.14322545308891713,-0.0018928607691904031,-0.017522348076528655,-0.010608080047749484,0.0502288299428991,,0.1172984095151005,-0.0030709034375492926,-0.059459296485158054,-0.07095847957668333,-0.0183908445988482,-0.02056970447537517,-0.002193630566659069,0.018619252923654756,0.02914953273425895
CFC1,,,,,,,,-0.05174061199486556,,-0.035826899660188934,,-0.07464257270908423,,,,,,,,,,,,,-0.08811039122163097,
CD70,,,0.06791986028296775,,,0.0627191943821767,,,,0.024714842142349768,,,0.03871274800297046,,,,-0.011424871453105763,,0.12867237393899417,0.1186842588783165,,-0.009400713741960014,,0.07110925054349777,0.0696684063446902,
HP,0.10023994420365602,-0.06010857198555845,-0.03652978142983853,,-0.0650763054642785,-0.042242866153626143,0.04715665877252307,,0.09476419371748354,-0.0578822078573331,0.03135897142944541,0.07998287443062481,,0.0496134000441553,-0.0001504166857703214,-0.020121585977844202,0.059108278198515815,0.05842977879830674,0.03752295635074467,-0.05635151751130284,0.03087970139610429,0.014799936899939211,,0.011757184264293716,0.024468117516732023,
CXCL2,-0.013751693753416804,-7.605421460544617e-06,-0.06330414135574532,0.0341022423346101,0.049110979951833646,0.06778979815113925,0.013610968967419501,0.1271104702209813,0.11358783360543684,0.020974518356288285,-0.0425533408939198,-0.004301969694283163,0.11299815961309367,0.04633304256652681,-0.019426972532757335,-0.01223926134427717,0.016535389520023855,,0.2671945367667175,0.16994567406324956,0.053882362927279166,0.050620591438300826,-0.010792477194062816,0.004892651891809334,0.12096554013975241,0.0048853835313653025
NPPB,,,0.05857399002349436,,0.007403323653404929,0.17932262001943092,,,,0.07030740061077405,,,,0.08217655245554291,,,,,0.06065042539166317,0.06030060820803098,,0.03466239590118754,,0.07059788656554328,,
CCK,-0.07404665102831699,-0.16786636419522835,-0.0958668162539187,-0.07717851948055952,-0.042674506454438016,-0.030213275953387575,-0.046352137908746864,-0.24439867385892036,-0.35147549898236174,-0.11993870589293311,-0.1303178806582776,-0.3191479180696665,,-0.2609887262113205,0.04689262666113557,,,-0.019745159578901883,-0.042706874529904494,-0.06186146226381151,0.02739899588288935,0.003501254357093488,0.03853400756477092,-0.004868978051541592,-0.14974985642155567,-0.059855747922262344
SEMA6A,0.073414219463417,0.022786539331103205,-0.10508162498690306,0.043206097953656146,-0.05362652161217828,-0.039253419890459315,0.011778100304811629,0.12057638298254028,0.26927007885226806,-0.014063293965764726,0.03775837908582885,0.18630785249881676,0.049272023375551866,0.19327337600295044,0.03953254544100997,-0.12361167662671922,0.030891879182395783,0.0038846234944465477,-0.11472297043968055,0.002870604768403987,-0.020770681863841685,-0.03341819440119639,0.06917364463391368,-0.03699098678552518,-0.012938760384750954,0.10534029208180962
IRAK4,0.021192714286283127,0.09261623920581996,0.06310528647584313,0.01950817730763021,0.008466149326781225,-0.013580588319422953,0.10354043747944021,0.1436405472062876,0.20426764350754056,0.061641818822490625,-0.005316437405602932,0.015730674789308917,0.10496354480875324,0.11100301846950905,0.05138934079747271,0.009645537124291819,0.014532224677609373,0.04926890759417619,-0.025724817985614195,0.018710008373509054,0.04624785485774952,-0.025523779106265545,0.016497527010543852,0.05562452552208167,0.09614453209341488,0.0413957753413032
GSTP1,-0.09410991411618037,0.016335335581428995,-0.11475259919622655,0.08663611588408776,-0.005148954655105095,-0.02169402813353955,-0.02468899618629153,0.18403159045296266,0.3390834534545289,-0.07989708166973523,0.052865774251068635,0.2883177193335091,-0.0633646799794666,0.12353228703168553,-0.03563721269220776,-0.08400254506419393,-0.004322343919590316,0.04409768064187183,0.031523575436225186,-0.0026297771159265217,0.015334865880681458,0.017435352402929327,-0.03693734690680526,-0.009031569065891283,0.06923941278056374,0.03977107198296161
VCAM1,0.007106913294197599,0.059850934652865735,-0.05353204461888307,0.04958491192176178,0.00128616055831128,-0.05852932622951874,0.04113960789025949,0.09517808723750676,0.30113740134761713,-0.06858550512092669,0.01847500028574441,0.09498713629632129,-0.06663390930003067,0.02525893554775147,0.03336597306123429,0.12592615846513636,0.048147258770701376,-0.002710415947175507,0.12302827393846752,0.11653224090928803,0.04080200984519086,0.03266902836444532,0.07291462534170008,0.03967535937191855,0.10605556691871679,0.03938090356237617
NXPH3,-0.009514163003649646,0.08814092828153275,0.01591876034471373,0.013580273079200612,0.051802719957517805,0.04102357157001281,0.03352264669029043,0.11928149891180702,0.16285924804691002,-0.022812670919743223,0.02731607440819479,-0.07219844989918178,-0.010250234318100288,0.042570983869652995,-0.006913964983793655,0.0822745879515639,0.06294170808077404,-0.011268024299752127,0.01935321995026061,0.05205763305346304,0.0426925762284998,0.027593803755159817,0.08142721832855031,0.032693005998460443,-0.035940389516487134,0.07566839177317053
MTMR4,-0.027299557985810824,-0.013713841494049247,0.004863164830522185,0.04267095326137029,0.12122669607643283,-0.030913198025821504,-0.08115101337560797,0.004340127012955556,0.07585288914213188,-0.03552417026720494,0.03010918793132218,-0.09552847951670736,0.09423491510902256,-0.019521318637359442,0.010302394431292735,0.07589642344907155,0.011281549643348104,0.07477383012023618,0.0024393435882310785,0.043745281487709856,-0.0023771204338980385,-0.023711498451582543,0.05111024618407888,0.059945486545321856,-0.0011577414352697986,-0.07121950856197518
LAMC2,,0.0029316369262586636,0.0649612584675167,,,0.10997044548578698,,0.013948241031108474,,0.0179016012575978,,,0.061801810337032574,,,,0.06074433169349962,,0.08212696327363456,0.03163830718674573,0.03747561713536897,-0.013576915987973434,,0.013323736436783066,-0.032268200086934075,
IL10,-0.015858572186340705,0.03376840568984451,-0.0004470990496730626,0.015782092192443347,0.007761262779827401,0.03066856817956746,-0.02874732838544228,,0.06171642363333324,-0.056408794576289445,,0.1359178101445708,0.06459705847148481,-0.02647524009160169,0.03968182801137996,0.070812984923708,-0.018778295312867666,0.10244845945184697,0.02538271731385383,0.05092126327701918,0.023482157910573148,0.06968157783915681,,0.03195831509882337,0.06387214851466337,
SEMA4D,0.107888180325849,-0.05159338394347687,0.039476868959595596,0.018598815147896054,-0.05310911630013879,-0.046521118975204445,0.0023405915192321407,-0.0021161804592115274,-0.014452395718587994,-0.06344902481557574,0.014285112141977667,0.14859702482753076,0.047073610062619904,0.02922659964821771,-0.08604167560709486,-0.0602935718973908,0.0034824663525032263,0.040589029926624,-0.13027686378167788,-0.04361576819278358,-0.04314264239090502,0.03935030100337463,0.17838784743516375,0.013476357137268543,-0.011830631662531968,0.1302690120945885
TRH,0.0594150768393686,0.019178058773499103,0.07221030858922865,,0.03925047960450024,0.051943854867085526,-0.05170475101475104,0.038721080692571005,0.17060240674996163,-0.04727910358391983,,-0.03623979171887447,,0.03120069715122506,0.10206251928125334,-0.09580631300646965,,,-0.09456810297639295,-0.031117607695222125,0.04701624177105916,0.05572394564627242,-0.03500149655809935,0.028384155374442624,-0.013843179728467742,
SEMA6D,-0.054020652989304106,-0.0657271919168397,-0.0006470344417403982,0.009288632941293807,-0.03722048345103441,-0.03321927793877164,0.01092562163042907,0.13073409368919384,0.16590342217747991,-0.007822919583206876,-0.07100185416397442,-0.01778269807414775,0.04803895117407097,0.11144199953045052,0.06235752785077135,-0.1648255987296103,-0.09803972801551145,0.07280337243070518,-0.0705317657761759,0.037738262298084205,0.029794784299892744,-0.04003924441407196,-0.03635612950114728,-0.04885166915122275,0.03559419083049641,0.09851750523363359
CEL,,,,,-0.010170208211392806,,-0.041796376142351856,,,,,,,,,0.1046069212570572,-0.018665222345873606,0.021745984399008572,-0.033037103033372275,0.01190733853930312,0.06397971649262255,0.0015815603868460188,,0.04999652065174847,-0.01542799974920082,
PDCD1LG2,0.1278434313428739,0.00110570505603717,0.002461720655031329,0.07725726711771008,0.030983670240558862,-0.027879835565367828,-0.050728046332183786,0.031105391377082955,0.07348014895857481,-0.053518347840084635,-0.014089991317100268,0.04354638600840215,0.03148996648719605,0.08229388883496394,0.10728705773494318,0.04608367410283899,-0.06624858638515871,0.10037445799356205,0.0009653558018286179,-0.06436307460729292,0.06633105361693709,-0.003189452906176916,,0.045630746845769676,0.05470466219056026,
SPINT1,0.009933357825927799,0.03535549442298861,0.02800500265063227,-0.02053809888182543,-0.0017226004369138856,-0.016049509207113507,-0.020318054185918446,0.055287613119074604,0.06874265173227735,-0.005649010119477297,0.004751723370755837,0.08007589287436544,0.05506699398272128,0.047529664915366636,0.06789226059209982,-0.0307715575268929,-0.015641187790292953,0.1111179922063649,-0.010472502552181873,0.03620696237430898,0.04114712557724516,0.0035215413772433255,,0.04577482201916233,0.0558606764328757,
CTHRC1,-0.014340969867306104,-0.039685592650683804,0.23058788180122966,-0.004906322881525159,0.03846011502383761,0.011640953574627811,0.07624574497872422,0.26175187440541703,0.16053254340692755,0.011333807018452113,0.04122944852100052,0.014627536531674335,-0.008543836772449433,0.09380491910072793,0.2033905897499208,-0.1198090064152519,0.1348987278356572,0.15436815294168527,0.06682262135772084,0.07257534980789997,0.02789280659995287,0.08524487538905212,,0.07166134395822427,-0.00107068253981792,0.1320160356654899
PODXL,0.07127570060550638,-0.040807429147011805,0.1721415758066513,0.010822236011865794,0.005500278958617819,-0.02172464749419256,-0.019865664435297938,0.241375266030333,0.3218893486809655,0.02206882319252407,-0.02064647833660595,-0.03316774794366957,0.11285341680457567,0.008655910135324074,0.2538955047223816,-0.21470440999056542,0.23783242860939866,0.15232122642186954,-0.037784038778674985,0.007709088296915064,0.034339893201255814,-0.015069194463985287,0.05040384732000295,0.030437594084312108,-0.06487230137303525,-0.0023309650753230806
JAM3,0.09575591808417179,0.09323251708011591,0.1292586785830423,0.10502042831324257,0.042954436812667876,0.003164004090748219,-0.0009544636693715907,0.09488372644681642,0.3135161083354486,0.09156841412417356,0.01649802143065817,0.2590562168356036,0.09854337234262543,0.17056636545760204,-0.04221947324660393,-0.004773451477585294,0.09685966260834526,0.006327558609648815,0.13058788287939477,0.03131412581599907,-0.005773225870304934,-0.05472860981058701,-0.02654553199729407,0.06136349398882017,-0.022137369436542077,0.11250953530872615
TGFB2,0.16386291479623105,0.052711301005080737,0.12020060252015405,-0.011411892115378814,0.03184381966880444,-0.045798211590491404,-0.06251347747667621,-0.030692380518941263,0.3071383455116777,-0.031613045149297754,0.0590587935946374,0.026132915366508615,0.07150527359958884,0.017648003912775295,0.09209686954917728,-0.07877388972946589,-0.11114560759904762,0.021069824327139348,-0.02537603337816861,-0.025762290123710115,0.01973179244946288,0.02203231152596264,0.04433545705816848,-0.06433687802553484,0.05679817398667381,-0.06857983407047982
COL18A1,0.027718476026560548,-0.025152387580360487,0.24246374366492798,0.025880987019646168,-0.03955474534012166,-0.005224653945610279,0.06265910623621515,0.2091531548896719,0.2713312133605534,0.15369751231860074,0.011907925635533775,0.16515607942818805,0.16931675557025638,0.04085690378190045,0.25583998908951366,-0.1030244089942985,0.21626900163333493,0.18120304457407396,0.12221908198177561,0.1881809008450664,0.03031453197052366,0.08895745084461582,-0.017978770628795777,0.03872081547549427,-0.009073724601150574,0.0015999563827496137
NODAL,-0.04127162718165597,,0.155869482775601,-0.020510555368902627,,-0.03654912980633192,0.021823836335386492,0.2541755258246042,0.16272681137295897,,,,,0.009017794309746849,0.16936044865674302,-0.10568239295730664,0.11981243406564311,0.11100380095521889,0.006063649636623243,0.01874189663591448,0.037908125770546273,-0.019581557781285893,,0.0564354715629974,0.01931073067829377,
INHBB,0.053841348891521444,0.08179508774453248,-0.030980586648183473,0.04688672289463518,0.03156281308407848,0.02038890254226749,0.0023786955041200986,-0.008567266673969716,0.14432245389579945,-0.012569535785008183,-0.04159892528467946,0.0630285472115934,0.1652665302493506,0.12626242423971798,0.09387380484924596,0.10624559066162517,0.13179500382194972,0.0035472343241340822,0.028451252141686832,0.16098003596584168,0.011225062098187273,0.025752837464762215,-0.004199222884793932,0.07097734331371493,0.08126064204497851,0.04845506477781936
LCN1,,,0.0699880914987087,,,,,,0.026009608583108967,,,,,,0.10154854655836176,,,,-0.01028069272181599,0.024257246405339602,,,,0.029873487105108513,-0.018777525521158373,
ARF4,-0.0438558032670486,-0.024254270483930737,0.19302928759803004,0.014987925435325341,0.06534225143796309,0.06442644618065152,0.04861281887085597,0.09419746433262374,0.18986160590828058,0.021937132460036663,0.020227868996851157,0.06978598512694913,0.10196827771387089,0.15526149884679927,0.13491852821659625,-0.15688820402515039,0.11163265795433792,0.012317546609068888,-0.03671636584218655,0.017829006946186964,-0.013516588591940298,-0.004641626929169666,0.025350292409944436,0.055228940569562394,0.09398501392701886,0.05644580590459712
CXCL14,0.11665834026335392,-0.003458048608350173,-0.04126467155285037,0.0005727650368964854,0.07315012387646917,0.024110187826203947,-0.023036863067043348,-0.13080709703537735,-0.10990842294613183,0.16218515910370385,-0.01602774991790793,-0.07343780961716377,-0.00630836889458927,-0.08220906427917085,0.1825929765473494,-0.1415720976305202,0.05296328017639056,0.032160374638742516,0.02153873724202153,0.05053041038090716,0.08875915501677767,0.051868414359300896,0.010763359139824534,-0.021856887302928844,0.0995367067257679,0.01414110517061735
LIF,0.002649506516907021,0.11357381864339199,0.1405230155381733,-0.009222696095019738,0.022280230544217246,0.12641118493517747,0.0626480048284285,0.06832259366755057,0.1339578725687891,0.12943807786260328,-0.010838551170646284,0.09802582327874688,0.0866601993947232,0.10429595371048944,0.09526196579051427,0.15724178074219447,0.018049649070550646,-0.07369015169690375,0.15670912526227918,0.09841635141749876,0.05853358929785003,-0.004591252930286977,0.14950571200209709,0.06719581783435113,0.07931582500965645,
IL17B,,-0.03944304849369974,,,-0.03206231226718653,,,,0.07641934790584873,,,,0.0972751483856964,,0.04112178560780447,0.13593489748937448,0.055799624570101194,,0.01121308926747211,0.04097375948842326,,-0.006280077347111382,,0.044173797644057766,0.08111308289636746,
MMP1,,,0.0475244848790116,,0.07942990577657694,,0.03134148358407617,,,,,,-0.16169563520842306,,0.19894605651777014,-0.03163820600888043,,,0.15472347995645178,0.06977486896758235,,-0.03025845782704191,,0.07793529215957055,0.06242298738117978,
MATN1,,0.08238383733255655,-0.009936938386579571,,-0.0006430608091725252,,,0.02744783098068274,-0.044973037140928394,-0.07110200635629632,,,0.07096756235566565,-0.01117305577062306,,,0.025740301163379442,,-0.031243013819571248,0.0643472639090076,-0.025368173593783228,-0.022547121178450466,,0.03168446711575513,0.02684559004764135,
ADAM28,0.06347148696751097,-0.0008832277864454633,0.08469952595194409,0.08228942108122529,0.07363583628961093,-0.03430321628438392,0.007392577474188514,0.11710435119593808,0.2116377124488499,-0.004108627410717912,0.009378953651192309,0.1677218822847846,0.07108046957454359,0.05565089482725335,0.04302452790825405,0.07134747592907353,0.09907431984333469,0.03719794002085103,0.03277989609125861,-0.011319291082442754,0.1256622794165381,0.08136503553502136,0.07215174871356467,0.07161171227474618,0.042038278066301726,0.05621652976744225
TCN2,-0.04094110099209742,0.060304905744259424,0.13788519553342543,0.05280062595553946,0.06909807786444498,0.05954577115700915,0.05339906760672842,0.11890207798611507,0.2426072415808438,0.036947264208967934,0.026366909039708793,0.09824210463132087,0.0250507534316246,-0.008919726723471428,0.08205296669211343,-0.12423990926818643,0.13758720033905086,0.12350351039705361,0.024366509115361423,0.09320430392820667,0.01096414993805195,0.10589970180406244,0.05838595560868356,-0.06789350804276312,0.08854806082284337,0.0036264835853409834
THPO,,,-0.03995714087055426,,,0.01154665080940293,,0.024136249062554117,0.04692184608992045,-0.05007600695419479,-0.026470185041103194,-0.004988382577296913,,-0.047783808270180333,,-0.04711267319076833,0.023628222773094225,0.016609121426765874,,,,-0.017133226478457688,,0.01363909641904214,-0.04798808638526093,
CUBN,-0.01099646339165291,0.04680311655043873,0.16665254721898254,0.04844210766111726,-0.0666532208712484,0.021881389650891328,-0.007826996683134892,0.07834278577376119,0.060812476621361966,-0.035201088382813515,0.04761246346005707,0.01961597813143971,0.08222016021940752,0.07316787187802919,0.010706236401429677,-0.005798110805577033,0.08617590847010835,0.126457812290694,-0.0043081570686157545,-0.017839083005578456,-0.020233360195002964,0.01408301775246159,-0.09225443877469615,0.058737102014370414,0.11498205934997341,
TIMP3,-0.09810773705379405,0.07229002391504888,0.016459932672661114,0.004619789691592883,0.12979768474623796,0.06282119618958683,0.044008175349610074,0.08487668140871844,0.20720067429755254,0.06472992432754475,0.039873274885220134,-0.06517041247945668,-0.16313089755958857,-0.019728816443205274,0.10332790036860334,-0.09863653570824521,0.08492900459548139,-0.042345815799726814,0.17032811576056975,0.16432327280522438,0.07067627379101046,0.11816598933838773,0.06403641374668395,-0.015443501982363744,0.013257497362584442,-0.03289350021560982
PIGF,-0.12002238897247529,-0.03736771614395246,0.008771197163211413,0.04067620379195427,-0.05854094372188957,0.011736596805305963,0.002704834566622891,0.07318235033133828,0.24303028876836005,-0.012869321591359093,0.007722659215788106,0.11270264504898081,0.13288375573371194,0.1229730205553983,-0.005284676453866127,-0.12169094895873551,0.19784685076773761,0.06135925054128897,-0.03253932059073645,-0.011237902218148639,0.08296195229866879,0.005014490491181468,0.07548498729898336,0.026967620966785167,-0.03934940635994877,0.07781333151966592
CRH,,,0.04710515726471676,0.006307478049488135,,-0.04580137082903943,-0.031591906870693416,-0.027585197328294363,-0.03444043784972064,-0.03447750026825348,-0.03324834557579014,-0.05728823248359892,,-0.04081191965539958,,,,,0.01328983898277372,0.05145508189574143,0.022080177147847407,0.004415983188496189,-0.029054000190839566,-0.01693633405757105,0.015679970437949893,0.054292235562789844
BDNF,,-0.06449933846389656,0.05610973924247598,-0.04394631158403893,0.039385450010595874,0.0154541895804314,0.03967207023632856,-0.03708237153143201,-0.3099496222950162,0.0646861327212776,-0.04961582545379322,-0.07271769871750144,0.06146667953604372,-0.023593150468046015,-0.0049942255250254065,0.0917561082933414,,,0.05078232306857154,0.01960297431427074,0.055044758228267876,-0.05534353397165265,-0.015779929504065204,0.07142376151625188,0.014419831407403267,-0.06608418734958614
CCL5,0.08505106155624372,0.0168494439178992,0.04699118765441434,-0.0064975851088023145,,-0.00470804810357833,0.07373922432403841,0.11079058189318085,0.08032869418116441,-0.033575889233316926,0.01991352760049637,0.09670022743437805,0.09367536501788022,-0.005949411826765696,0.08410209704297379,-0.08840672792332785,-0.09136741952419482,0.0601553666285459,0.07978243775035142,0.03725189565344804,-0.0036740952804757447,0.11427152383453672,-0.049544932778412654,0.06252830992337492,0.00896640529272355,
GAD1,-0.0331698717690504,-0.07363690198313046,-0.0182552819620465,0.008500633828391899,-0.07469145085835521,-0.00897819717316559,-0.03709738927936488,-0.14147077742527844,-0.22993259513784545,-0.14791997279029456,-0.09565176583537822,-0.225398800491902,0.03937238902151588,-0.23084708915170615,-0.07993630518794792,-0.161435938734231,0.04772226332317285,0.1143593334821513,0.0368156732359021,0.09879649518508933,0.08845356888204728,0.010094847043353795,0.03095822025244179,0.04904928534270007,-0.04439586980742297,-0.01029031341530261
COL14A1,0.049090252899853866,0.02638027977293975,0.12027425459716434,-0.03823852703466323,0.05112892177169177,0.019584816310698586,0.002236054831062051,0.0598887206608175,0.10977417851231662,-0.06601284825306288,0.0034418185649765357,0.12542399244744631,0.04239688804344483,0.06431799599625075,0.1654705120420674,-0.02209736433030632,0.03117101501663455,0.09634285967757941,0.16276360373795043,0.1511384699015989,0.041194753807309345,0.0886882169242919,,0.04073039320684346,0.12869947360734843,
HLA-A,-0.0828191338620084,0.02137698984238655,0.2025410012594594,0.020802004828950477,0.09967260926120686,0.07844663580031067,0.029398277607538728,0.17831606135463535,0.3709949546020253,0.0706522526297123,-0.009253520901743768,0.3329158622228897,-0.10334877606756053,0.2496699553425139,0.07782039878099573,-0.0034264225586996713,0.12616901686488696,0.09501969933029948,0.2365755035953672,0.20871742738016386,0.03140437347944755,0.04163865331383044,0.06991246342482342,0.06988189199511648,-0.03295745202454046,0.08284875235257845
CD5L,0.0316223372628773,,-0.009247691675418427,0.11317157728695657,,,,,,,,0.036642654536858055,,,,,,-0.0554088634135809,,,,,,,,
FGF18,,,-0.010691138136398522,,-0.009883736683335462,0.061178581733730246,8.455195053724043e-05,0.00016368044436948398,,-0.008414415025986765,,,-0.04648496554861249,,,,,,0.060734099088745476,0.0063055473912395415,,0.08743111904973455,,0.03233331696458923,0.0503437831487308,
ADM,0.029039943918072197,0.23162003734248826,0.0863099918365189,-0.01727710373213508,0.09855535778465065,0.175856388497048,0.057066845348745544,0.07598924253065086,0.1742533424130038,0.25659823239839064,0.03512659787989621,0.08998903579762568,-0.15320588555192569,0.2512072387918964,0.13272486606798414,0.27624719907046963,0.027954945617366743,-0.030688079717760382,0.2891736680000021,0.20239545193648717,0.07884917031588357,0.08195951453466438,0.17021303235405727,0.11944069783405177,0.16609711226754884,0.006742947748992391
CCL15,,,0.12641096221762416,,,,,,,,0.0018573014928923086,,,,0.04405624991878237,,,,,,,,,0.07407696619835469,,
GNAI2,-0.05905986232565822,-0.0009935172065528644,0.13699130849414157,0.05302135940554332,0.05693496554133775,-0.10087887127958742,0.06405374553653356,0.14367883520969957,0.3465568570540148,0.032858993036378785,0.038866506406593185,0.25820426954047004,-0.16252819611497735,0.13475272896718413,0.1837127929926371,0.047830242185169645,0.029229832352586263,0.03279678317000591,-0.0019486111368300838,0.0014563249342882964,0.06770641371683116,-0.015092890531448624,-0.054244471451052136,0.0046350866244079395,0.08522562996148222,0.049745599578582406
HDC,,,,,,,,,0.1469925709926607,,0.0013771488774250967,,,,,,-0.056461566218963054,,,,,,,-0.02008218229724745,0.006841835881010717,
COL11A1,0.05370985593827115,,0.01732363715619932,-0.008215647645913336,-0.017197643234212537,-0.013030302804973712,-0.046527159749091294,0.21193563823987505,-0.013793556787541768,0.026675765697356434,-0.002839150434272098,-0.04942167904032583,0.006462741096407215,0.08000637964723892,0.037555106192450186,0.006598342213170004,,0.07905364366635816,0.14221738475089157,0.11512519399773388,-0.011793443970689441,0.05769569104141247,,-0.052070576013023784,0.059716699713264536,-0.006439241647652981
NUCB2,-0.028296166912514437,0.0338761484118382,-0.0022395505017416893,0.027581198377439872,0.08616536203616426,0.02748291938529881,0.013151800464722562,0.030233228965401884,0.07578339809425841,0.03503100692055927,-0.03525702571615977,-0.008405632579817126,0.12425226431660187,0.029757066701263584,0.11615478219677405,-0.12908857961667483,-0.04221105965889201,-0.009809383933601992,0.01332196413151083,0.08853764891661033,-0.04752649360510149,0.03797698356820347,0.14599181975219985,0.07101135961312285,0.04694195910830119,0.05328644075454068
FGF16,,,,,,,,,,,,,,,,,,,,,,,,,0.06892534119539823,
CXCL1,,0.0027379040634122197,-0.007181611478642016,0.02522417862205938,-0.057079533157457445,-0.001954283804372574,0.0546438040335833,,0.010965191780422963,-0.001731421678705254,-0.032941995678491764,0.03948494012965921,0.1688854839732873,0.023709579697626677,0.05086424483020182,-0.028795575711378023,0.09408462522535521,,0.16351654739051677,0.1662333726890616,-0.040978133788834345,0.036120168332347394,0.039251610143747354,0.03543376134006978,0.030482764864171338,0.03940249426561985
VCAN,-0.03631561827056231,0.08020917229468776,-0.11630491350794235,0.007135928255870433,-0.14857407085077362,-0.11798215516867679,-0.052615586404408395,0.23345673984962317,0.2910749134732961,-0.09120795290116916,0.008744307601456757,0.057473294867120106,0.1435584031930556,0.16471991569615352,0.005796030169741812,-0.18380414517687432,-0.1665027899790053,-0.01930378200769988,-0.31029196442522705,-0.10587295862771265,-0.07278622587489371,-0.0015183684979606597,0.02144375425421981,0.0034569962957382,0.09631250362809475,0.05355340895421751
MMP7,,0.1933617041041443,0.10953795249468802,,,0.09635702187879995,,0.05578476842526679,-0.0286526084492199,0.01089680022545926,0.008112106049964433,0.06966465858878736,0.060004854589681425,0.04646193823808484,0.06671541645113403,0.05769037970385993,,,0.14289392530047645,0.11412601948461223,,-0.03816748812659392,,0.07444115758526619,0.02714353701451911,
PTPN6,0.10470290967835774,-0.0036010448294909255,0.027674134489411053,0.0862505788481258,0.025877184718954803,-0.03271070386520729,0.026636475017160162,0.06166748973590254,0.2596384178225598,0.02173047534037969,-0.01611644328062829,0.18790908199222545,0.06931356775138688,0.08004358848075178,0.15504768268707758,-0.0037644924321519994,0.07013030683309376,0.02734775485875336,0.018885487626510686,0.03093500353637666,0.04447495865097844,0.0525131351073563,0.09290514010194467,0.0698646381720037,0.09104675311147996,0.05858451687811359
PTGS2,-0.05648651664875519,0.1296687995111425,0.1953779177994445,-0.01873577831758478,0.06319209384451702,0.11162447613685732,0.03557031822180182,0.01431573815245577,-0.27826825319943965,0.07339990118273282,0.01474826319858766,0.018180995938196453,0.04457042767761268,0.011851206908973047,0.048914609815597324,-0.008603733725525127,-0.11124428849231077,-0.0030653312341656935,0.22686645403349615,0.1917523085368018,-0.006554702007273803,0.05585238521635454,-0.02566952856804875,0.08345629227360297,0.10162494947872133,0.011855086483345356
XCL1,-0.00293041538457107,,0.007817808758052817,,,0.023225204513125836,-0.029611333007829158,,,0.017319049333421533,,0.07120363075271681,0.03321574926777166,,,,,,,,,,,,0.03205321281684637,
CD58,0.05793722409716885,0.0011655577901362173,0.09521680385197484,0.05270532630972075,0.04668710085254789,0.032861428610218076,-0.0110955126305177,0.09686248501940031,0.3448479113905899,0.017081944749750465,-0.013043051677453036,-0.0025790477576182634,0.11443684527201294,0.09644923339478688,0.09493153290311057,-0.057412059271143304,0.0818966532417423,0.016223790371386486,0.04043061797891647,0.006377060841841793,0.07773389176088627,0.03407547522148301,-0.009360602560164858,0.042313171785784885,0.020105327819088217,-0.032030029002808845
TNFSF14,0.05445561270044337,-0.061184971673124644,-0.0033293432082694982,-0.06606462798794198,0.0067625428470660465,0.012519815039395445,0.02933574088856761,,0.08482915331609488,-0.026569499471724736,0.024624215275798063,0.14483726086233634,,,0.07824765207563064,0.012709349564519601,,0.024198917461849705,-0.011761162166034093,0.07009307476804091,0.07359507912980036,-0.029232743709388397,0.049654153885045474,0.04113050866211952,0.07392329742665282,-0.059495975784244017
CNTN4,,-0.09155871630383186,0.025744483202419146,-0.019326808028013932,0.03685915423286235,0.005170800597294479,0.0033139586833433963,-0.09286968970633788,-0.18666279917762377,-0.013909902910458637,-0.019097812649660203,-0.1806583875991877,,-0.11192439340350518,0.0036128065942477596,,,0.0897283067403276,0.03196956794875503,0.02863063761022683,-0.018148975799174086,0.010480131282904967,-0.04275978980604438,0.021606507231346186,-0.04671087544444052,-0.0534508849439531
NTF4,,,,,,0.041739053537305566,,,,,,,,,,,,,,,,,,,,
INSL3,,,0.008302246368671924,,,0.003648917017880069,,,,-0.04016789700795209,,,,,,,,,0.018660810875386527,0.021149253820064447,,0.03586120949916761,,0.04337851533859477,,
BTLA,,,,,,0.012044634846243338,0.045154226122336105,,,,-0.01682531189963854,,,,,,,-0.04424034724509651,,,,,,0.03570057903252916,,
MFNG,0.10287509979934113,-0.07503079068410609,0.1024029249990546,0.11289466510425278,0.036779287621925054,-0.0008986217917797456,-0.004043852683003489,0.1806486672819133,0.24293332873808954,-0.08148793176626602,0.0028012319623589906,0.06968569695345314,0.10602413308291775,0.020964668459222725,0.09272464577443465,0.014726435514703502,0.15365222413523422,-0.00207406167431621,-0.04713025925093785,-0.04116443581016712,0.053960097691598395,0.06850418642984758,0.08865028688385115,0.0816437182625926,0.08425503520736743,-0.029325026529760156
ICAM1,0.096800965524289,0.1107027396273706,0.02842211611228444,-0.034898988329450535,0.05390935153266034,0.07944710674262681,0.013219727187032406,0.10560053884124365,0.2333500288321789,0.009328045080742697,-0.03839394495367891,0.14567953606308529,0.10911018457583156,0.05777885219500542,0.08162996802146079,0.17217925480534735,-0.06931449572173698,0.047585582034569585,0.1908257467496182,0.1873782348972345,0.031054741197718668,0.05933151803675721,-0.06252754963485971,0.01714748997062134,0.089292416616676,0.03417258442916445
PROS1,-0.05555476742896243,0.08267842908330382,0.14903282950620705,0.03483257604263,0.038857561739776475,-0.045854734961475296,0.0589316913541215,0.07659426821622803,0.2790833109633056,0.12681730727054966,0.03571117453673049,0.10441750829576216,0.15373358263127487,0.02342493408078242,0.08059049083876559,0.03243677155579194,0.05972503814982392,0.04219533037784432,0.0177750506281731,0.05688058972544208,3.591286835484332e-05,0.10210313824736043,-0.03749266251326593,0.045754051770121665,0.029903312944292,-0.06644650419615708
CLCF1,-0.003632673278806601,0.0993162316467772,0.1422594676935133,0.07156971503568882,0.112549646290458,0.07243609899459522,-0.006500593178837579,0.08804371732323203,0.03673988374506367,0.05442680793129146,0.02805227484535239,-0.01586375776352977,0.05754564087176928,0.06336197188938841,0.05168172757139428,0.09475330390534412,0.027196589020789943,0.09263423448954393,0.1405726349395092,0.13622713329033495,0.04198390832764878,-0.0017270500766649129,-0.054580917070678296,0.08735699060363392,0.09619698047323523,
PSAP,0.1784782347785641,-0.08387057982456377,0.17217564632859872,-0.02193343896846205,0.0464636445557428,-0.00833393830641191,0.020459873438833445,-0.1935771803811425,-0.13017039042118816,-0.10127173243101054,0.012017371643835805,0.17088023703173674,0.018496074573726907,-0.17685542700579543,0.16755319698502008,0.05952421324105323,0.009839842632836129,-0.02415897716344243,0.2732819606847977,0.19682436669758255,0.027768238498993972,0.09285556096423313,-0.002321459261309182,0.0265656875301244,-0.021663685540273207,0.14997312187776782
EFEMP1,0.10232257869452037,0.1843042638317742,0.14749947838981997,0.09314959229197453,-0.03748320016475111,-0.03582028377761097,4.027823762938568e-05,0.08394048390658411,0.27393710050974396,-0.15850967031632246,0.013696793453254717,0.2633671987697448,0.1075398954192729,0.15470243164541558,0.19712929556928335,0.14695933790404236,0.04519542220016323,0.0023518327539426777,-0.07581232047057383,0.008165020911692472,0.059749457099281984,0.01646194237702585,0.05798785424225714,-0.0201538458843038,0.10600074412163601,-0.05166308660251876
C1QTNF1,-0.07234204706691474,0.09557979876601361,0.14676483499941298,0.11694130795046517,0.12069803738183629,0.038979412650334805,0.0874108286790009,0.11136415682429954,0.21018340240157204,0.04735638306567938,-0.05316603196832253,0.014236789098140603,-0.007068517784586745,0.17348409586692246,0.13428654201525322,0.03179217868598936,0.038717686649155765,0.04831021170798651,0.14966965970847165,0.11755243348511932,0.1225919410072245,-0.013152262113188205,0.045236168113954325,0.005326588648242634,0.038638728201111666,0.003091593633170921
ALB,0.03925085246532776,-0.044021954565681705,0.07563483856131548,0.022142006818589577,,0.052512856541359815,0.011179838399606193,0.007961305756986614,-0.06332104031818456,-0.009528953391069447,0.008330913015220768,0.1747074148839417,-0.023120240223464258,0.011757172521056663,0.04537623446450462,0.11441904771482628,0.0005226607155791275,0.04047358042856708,0.04759836830042899,0.019709609901246646,0.06741918728052557,0.0007669914654766159,0.10067048778236415,-0.03868361029669141,0.09970910075791414,-0.022966461646886517
CCL13,,,,,,,,,,,,,0.008253564403283129,,,,,,0.14895892319931026,,,0.05338281354610895,,,,
EFNA3,0.002696090142163623,0.08270223502028011,-0.005539984589653203,-0.008681154692798588,0.04719894699150232,0.0949762104993327,0.01048407062272674,-0.09404464948390645,-0.2794226048835136,0.021760717419277157,-0.06621692709725013,-0.11108878781251204,0.042230495627071284,0.037278802444845556,0.03126887221966459,0.019930336487717054,-0.04265876294291528,7.639211861019257e-05,0.0525070480053014,0.03779573676031936,0.05870290950299423,0.0037302823386292433,0.04461488079802131,0.09393329831251118,0.035884737030256054,-0.03670506504725283
DRAXIN,-0.034482635251277975,-0.12212290539974208,-0.04158136718581347,0.070650942505321,0.08714404477675086,-0.009414382640586872,0.009287014196806338,0.13665641857248356,0.24032936150319248,0.09527627240490696,0.025818605035477477,0.009744218043777274,0.13136956092219237,0.23988780067283944,0.03140627318794803,0.08689519531357935,-0.05383472355024108,0.010867409003646876,0.10002478276823615,0.09548454342284426,0.062057172161904976,0.00030291683098970074,0.0494058493927843,0.04842992137920311,-0.028948220873742075,0.0480014166675205
RAET1L,,,0.00574696400922324,,,,,,,,-0.053245756431528284,,,,,,,,,-0.020564580440657076,,0.052220656923357235,,,,
NPTX2,0.0640159902757362,-0.17319759427307763,0.1030740161971298,-0.05286569195227393,-0.024839113931503058,0.027205491695679866,-0.03658742015815199,-0.1830117413068878,-0.36027957891385165,-0.08454318569841542,0.009702195966268062,0.12466981967609338,0.04483787539615161,0.16504933667591773,0.07351715406582078,0.01620188608657456,,0.08074563074323794,0.02737135275292306,0.051611987680304845,0.006648371246047244,0.0535129739623637,0.013779928134562138,0.04754240158146522,-0.03931508541938444,0.03965558820425374
FGF11,-0.12955115266901693,0.128129460127248,0.024150998017847893,0.04847950889945762,0.03026668846001285,0.058420640157142614,0.00021217809929593862,0.048812879737223196,0.243472529926758,0.08526647175368833,-0.007703998009115658,0.01929925252996768,0.0004799881703517698,0.14901917473733176,-0.026313092015595254,0.1339153592111274,-0.0028663575343725175,0.03323359130002686,0.07067703496806282,0.11810300007606954,0.11716879561274969,0.02617947704734136,0.09172934847780968,-0.009492265397462446,0.04259291285018676,0.048610200859420055
CD59,0.1285622185598642,-0.04527207205297964,0.13507249467338953,-0.07610803575144913,0.0884671213814254,-0.0647339700671109,0.05039716051507887,-0.060261724028317,-0.12384096685260858,-0.09119766415871493,0.002838653506844481,0.09514561699248439,0.03504572040526021,-0.118652417399888,0.2626561604980255,-0.19018878164119338,0.15286802814645944,0.10141273594466378,0.12289828570529229,0.10920553078611688,0.1098591554158625,-0.0001355945281519881,-0.050165094623843394,-0.08351021283854482,-0.03611403874115436,-0.0298242422548261
COL9A2,-0.013111291212412482,0.060415938404245674,0.015381505372426475,0.08046467050775584,-0.01676581132032669,-0.019854902979512593,-0.05519781197067602,0.1555966866146564,0.20083593437659636,-0.030501060816623238,0.02424521496828056,0.10683092939981623,0.07294463485490066,0.12118526970544234,0.019528186258081847,-0.11768730663080527,0.06288127643289015,0.07504951781710802,-0.09166835979589716,-0.10434035379416132,0.027244541906001674,-0.0627258100623819,0.0957068861065023,0.05864335075503722,0.03266608962699211,0.03200486085583999
DLL3,0.05190453998479356,-0.07360870089223817,-0.2195987855363266,-0.020939195888761527,-0.020027304682297586,-0.16585427976373404,-0.02999749597385647,0.1425396405516721,0.10991168606876989,-0.14123099032361938,-0.08965447569317071,-0.11010223220567662,-0.028004123469322902,0.044165103588889636,-0.1620512740948562,-0.09365561709454182,0.044114920707524,0.07958724668589133,-0.12861312625408855,-0.03502388294592783,-0.03509064869171649,-0.03972900241194373,-0.012938131039481772,-0.022748003479925324,-0.09653650318127144,0.03662193567534861
FGF5,,,,,,,,,-0.03555758932304407,,,-0.015208928541164691,-0.003243526514294382,,,,,,,,,,,0.06719375837308966,0.01680918660929789,
LIN7C,0.030427495134964153,0.03710804408326467,0.014379710670728995,0.046363707453096044,-0.011894919757819398,-0.03208161225885657,-0.03996155818186013,0.022147909769649938,0.19221023248947508,0.011826794511844603,0.009932022721389263,-0.06851813979336789,0.05719388383020491,0.0201430709105,0.10428824097735741,-0.1095048556961889,0.025595606162691516,0.06057484040037373,-0.07010046193562494,-0.0708129932124768,0.031616790864421325,-0.024837619970767336,0.023077099945212957,0.049198678424011114,0.004922913080348493,0.08407751001741501
GDF7,-0.007290136526238855,0.005842413476879573,-0.011211979533917515,-0.0655137740663809,,-0.040854550945663835,,0.08465435545913658,0.09512102570384748,-0.03728697145947621,-0.003295531698725034,-0.09440337077551823,,,,,,0.10549756661709417,,0.0057577703840201435,0.016304193085331996,0.03655767966870948,,0.025838019181876355,-0.056853997999534577,
PSPN,-0.038338638392756676,-0.01480209113688932,0.05299596019574682,-0.021180117690063414,0.019878542669017722,0.06413942538560691,0.027076693707660648,-0.0009274087903048439,0.011127954168109199,-0.05112745324337732,-0.01955285685451872,0.009203341456809766,0.00885567501132116,0.014369508265377222,0.10544159064122575,0.07179757532911411,0.0006687864183809228,0.008290122190764988,0.05624395667123946,-0.026801002613226422,-0.044619593453591275,0.02074296722998662,-0.049475399900838164,0.020612178757932684,0.01970136475953934,-0.08650609917534866
ANGPT1,0.011201772157585079,0.0025234869386101914,0.10507833708113559,-0.0009484547158924287,0.04038898847406691,0.017095097567319688,0.01806644379449342,0.0255175302157289,0.21681148427984281,-0.08455414214318407,0.006988202244930157,0.09826342797443406,0.11582189459219368,-0.03653541060561088,0.06902897097423469,0.08920246698445043,-0.03909261423810099,0.05981037585209957,0.10929303562623348,0.09144825901405444,0.019238193179748307,0.0971339118694042,0.0929925635172428,0.05877785478498399,0.039452610607736874,0.04286361199050038
PNOC,-0.0501068321549156,-0.07677013967483814,-0.04209266260015252,-0.06563728264567183,0.020608289171906602,-0.025816886567683467,-0.01212705119565437,-0.12021245532336838,-0.2529829347414482,-0.07157836638435858,-0.04827471467449796,-0.1747188951015152,-0.034695995054958344,-0.1321816710912562,,,,,,0.03107232436601986,,-0.014382306307160241,0.03881332012912079,0.0064926794003557844,-0.06011240906916752,-0.0638109501900091
L1CAM,0.06849315187953285,-0.16642212856259364,-0.040421831804208885,0.05609462466776978,0.0699856691964862,0.020198672066007617,0.05843079031444977,-0.1002877342947684,-0.2393419022074855,-0.035133931663196574,-0.025919011029673658,-0.16571117035571492,0.049681908501379504,-0.2671204883636025,0.02850116195650752,0.03287517042969139,0.0762968384358804,-0.07829054229286816,0.1478924508648909,0.0646545627826952,-0.01960150348672521,0.0031887011141292928,6.0211859371706795e-05,0.007917270923220516,-0.07224123493048161,-0.016300086232058055
APOA1,-0.049652202286069855,0.053003380982046634,-0.01324217955958793,0.06847412205572767,0.020348679061972616,-0.021315593309921343,0.002558741373675203,0.021650266467966948,0.08538424955412179,0.008697322473331026,0.019748294437024284,-0.09128703102072555,0.051031331234096144,0.06893511133783178,-0.004536762004117059,-0.12090230034386372,0.07410998920873965,0.09592502050891248,0.09031721965998216,0.021643674304023235,0.004942300983756196,0.06375263514763452,,0.035848279485316284,0.060714997301466414,0.0424670179068977
PSEN1,0.08671703990759515,-0.0357262840271217,0.04515267106356403,0.05175847094215756,0.0869315961261241,0.00315182631533174,-0.02060173894441015,0.09423922284641986,0.15363097485930002,0.0016498502436463564,-0.014423543054298871,0.19549519529214737,0.019361005639276653,0.13346909325259584,0.0709998179421171,-0.02223499018513262,0.06482622895997978,-0.021960018845347748,-0.012565932639831422,0.03886392796779953,0.0582271931151748,-0.02193432174072423,0.08815645108335388,0.06573422114352939,0.06983592837969015,0.12565933955485203
CALM2,0.009954536049624423,-0.13304744706342223,-0.127637184858115,0.0420457329944284,-0.08406108869966279,-0.12338588797079891,-0.045797191710283965,-0.15912306065235224,-0.3364397879584027,-0.16621953643941145,-0.027803811705154734,-0.2928253411013218,0.09602923699161015,-0.23985429735607525,-0.02476561992238687,-0.2902250644481668,-0.006145966187081019,0.01255501486154197,-0.22780034406989794,-0.12577481974613205,-0.01541350852082261,-0.06775352180721414,0.04576677537546951,-0.09218905574999388,-0.18124958539854244,0.0811705429803354
CLEC2B,0.07523440733541553,0.10953624747831704,0.1871927202168399,0.0024923002330532393,0.053027510734585254,0.062089785245868515,0.05513844103933928,0.11078712404694226,0.2735806418777556,0.07091453615648942,-0.01478801833415282,0.10297793310766638,0.06089966754944759,0.00225740955283307,0.24928505568654186,0.06025091340573998,0.13167439909084624,0.03870002409985142,0.08239583161780151,0.2217277014374024,0.11978175175267021,0.11982553307988934,0.08856241751172689,0.14720181849917863,0.12885240528422268,0.004531783460716513
NTNG1,-0.0623926885447053,-0.04268492829298843,0.02219868373787891,-0.01676708108447942,,-0.00044740750353622593,0.021987475017323378,-0.012969536216854509,0.02420215053166469,-0.050161735654125704,0.005270795327018148,-0.10791581519725282,0.047102644013654715,-0.06986896906086175,0.029152824869957433,0.02469015315795954,-0.1063743097045511,0.10968844930109467,-0.08879471614977885,-0.0012936819186315555,0.04541949338541385,-0.009041642973127064,-0.005018925493547512,0.0373902041812671,0.05240895918329157,-0.054845504402297546
LRIG1,-0.005292885864306242,0.0592077827032436,-0.029299324253110503,-0.041169400558545635,-0.0539236480865015,-0.06792438963059567,-0.04718717831937864,0.005565769891573604,0.17567820703154136,0.06852169990830782,0.04646758934883397,0.12458170614998373,-0.037615908273844194,0.06597342095650452,0.0004902510878787619,-0.20743578431615295,0.09662378505211912,0.036860386303520655,-0.06899305653182189,-0.00826414036272285,0.07120912885846174,-0.052054301199621955,-0.05347064361015897,-0.08821271452835745,0.060545503805881196,0.13636413655530374
CPAMD8,-0.02777991043565979,,0.07011052673699825,,,3.0162186794697362e-05,-0.02636147030152328,-0.013099211530715764,0.012219849265099302,0.0035047034004565074,-0.10129673120039714,0.03711980289072541,,0.010940130374361524,-0.019669834683084753,,0.0850522949148928,0.01521219317161487,,-0.009116207943548003,-0.007090549834965999,,0.06125003024008942,0.0541074720074516,0.048540897305710116,0.011673816920045937
GHRL,0.029669240106950247,,-0.0006702543284946089,-0.03659114689289273,,-0.042893950955388636,0.040203050144117104,-0.0202214261323173,-0.01170064070789666,-0.01737250082597379,-0.0027052010676239515,-0.009363721404725403,,0.006356047446610832,-0.07115745920227641,-0.11309572342132783,0.05083435814279633,0.06215072229804434,,,-0.027122668956701266,0.05092254377961458,,0.02157733022396635,-0.03930722075087194,
NPY,-0.004021953214087793,-0.1062740414326129,0.004777327435785001,0.07117225030279319,-0.02800474749477955,-0.043269348044486254,-0.0008661045792094144,-0.10294892806521051,-0.17181581182666514,-0.04148699862274286,-0.008541548526852984,0.016093895636319636,,-0.09744736088291542,-0.095071024053408,0.03490305757418032,,0.06117429231448791,0.09115110655568302,0.06028348851429348,0.009448391639753643,-0.0067969366808936305,-0.04485507800078072,0.11517158991571044,-0.14723549268101255,-0.010660573532673738
MMP2,-0.01962301878926249,-0.09218100306006129,0.07237367313018447,-0.027538983637200056,-0.06113789774928648,-0.02174534151181814,0.03176801960691001,0.18933235636672566,0.3275666059212718,-0.029230836200129392,0.022404817667259155,0.14810208527225593,-0.10750190397955285,0.21605029592251293,0.15449993731632206,-0.1736355863910462,0.09996385622157174,0.08105238975859849,0.0035339685100044273,-0.015659907561524494,0.07739163492482949,-0.021514224946649254,0.003216208330751306,0.044254237093025624,-0.054817953582208465,-0.001851235715458781
LHB,,,,,,-0.04359380511250301,,,,,,,,,,,,,,,,,,,,
PPY,,,0.12082336432790457,,,-0.0006916973242264584,,,,-0.026036516374105492,,,-0.0057396611957644785,,,,,,0.14834908584469345,0.1754875422446439,,-0.017823750365235695,,0.049436184878199584,0.008268104342602209,
ALKAL2,0.0188128238521174,0.06541234152906036,0.006449808524586017,0.017608104811370262,,-0.023711867249873172,,-0.009480205232957051,-0.004823501962589602,0.06254117254704189,-0.003344090333169872,0.12109158052082711,-0.02679051778847377,0.0946189723434691,-0.09309587654491279,0.09252551287180727,,-0.01924677413702186,0.017847483495562835,-0.026004603588369778,0.042029551474818544,0.0012490715087542974,,-0.021539749558233543,0.08619383386722876,0.07690435654461088
CSF1,0.05581558423076279,0.1615425343464589,0.1085212919996487,0.006573260375630766,0.030335382258474777,-0.03219434684111153,-0.01653679021288626,0.1556011067038049,0.16554390314998874,-0.06586964970142731,0.043767238059418526,0.10548239473642317,0.2154015243357666,0.2044621228160663,0.03608370173110532,0.1432389027028733,0.11491822077183811,0.0795748165013103,0.11174150916022695,0.02268059515006834,-0.012433486921484467,-0.002671609971297068,0.06839757913984441,-0.0027516057668109536,0.12185387328387254,0.12143886405522566
SEMA4C,0.014472673620653362,0.016769290560938278,0.14144430518918696,0.02158580695250755,-0.03363669277300813,0.008492879978230889,-0.010929073621832777,0.09417555553603946,0.06823763492750093,0.02127716068972262,-0.006531649792471819,0.07961201213431011,0.05452771080511184,0.04584586021313155,0.1363003783138719,-0.08458952214354151,-0.004516948331012924,0.16355044173865796,-0.05495253844333122,0.059159230288542926,0.023586382977933126,-0.020494853728393936,0.048701728194270606,0.08480189424502023,0.039064133390021065,0.10318424654113623
BMP8A,,,,,,,,,,,,,,,,,,,,,,,,0.06281347526611025,,
ICAM2,0.03561430237058004,-0.10887114751225037,0.1257840919641326,0.06925759664709619,0.07073623949550857,0.04244081190168822,-0.03397121273420135,0.1653483011238508,0.19423943775816677,-0.026358795155472334,0.03143200935190522,0.05239587764778575,0.09701008049182001,0.009555740122490568,0.16108516316182417,-0.049748122205221505,0.1348735203714644,0.16711135733510385,-0.04791796399395692,0.003772207793046155,0.1427917709007449,0.036516277286951115,0.09624685956812654,0.05128180483100148,0.051707747741835175,0.08284381560027637
SYTL3,0.031320606095769005,0.03019067307039783,0.10083883625402433,0.051703988227584236,0.07429515822444406,-0.003988606222007399,0.03939184678621369,0.07211280596950634,0.13763743404547799,0.013824350099661487,-0.005834383234488266,0.01565166390957487,0.0037837700111726567,0.055068166737525265,0.007125223149068677,0.08748282010958477,0.0040023868456068295,-0.011064908475684683,0.09896825415753971,0.06999089287892832,0.020144828519849407,-0.00019808840232716534,0.005524432022261686,0.023126524169697384,0.034166795236948794,
IL1A,-0.040275002327620824,0.015957549670481325,0.11136909506077182,0.026914134638180962,0.06697192135759338,0.03325453349208401,-0.031830918165983636,0.003185333863396099,0.10876309657137144,-0.023328519917938002,0.04159503056010456,0.15848580775596277,,0.04549298937349655,-0.01631745952244915,0.006209534468627821,0.07683406804585319,0.07163033425084057,0.11609496833289841,0.031417355483907825,0.10756952121603923,0.03542413514333435,0.013306955622682531,0.05671224463054094,0.008466190635355598,0.032400281851465595
HLA-G,,-0.015400351607996899,0.04253622784460959,,,0.06229516520179018,,-0.028597990846837926,,,,,,,,0.03322748682508707,-0.04058362321033064,,0.03522691591609078,0.03229110116818246,,0.019505335656746975,,,,
PGF,-0.09545465541582111,0.06093803432469577,0.1931819790587824,-0.014521229797099145,0.11490610424895982,0.06362253442468928,-0.007786100762137374,0.19053216900939984,0.2991047733190177,0.06751084093845375,-0.010641498675551204,0.03886616267398296,0.13195926430861818,0.15825562788662142,0.22941120174944138,-0.0673793778416507,0.2094807948129282,0.13645962134692796,0.04551407210680257,0.049904373136430105,-0.013078690868545498,0.07899719078083742,-0.06884338695607226,0.1203326476138836,0.09537764229558622,0.026809424644634844
LGALS8,-0.053981015114038605,0.03412964102154714,0.04498008320201587,0.04958148607765346,0.09370368031337223,-0.027743254725131308,0.03901939904997395,0.06483593082903776,0.13332549970479024,0.0048361675040943615,-0.043353245474717216,-0.07864999414812916,0.09730071820116167,0.007810117004023414,0.04002395461822664,0.09376355859630038,0.035422584570369696,0.02720881273597741,0.006075396114129614,0.11260728441427575,0.03341039056878423,0.0785217432615447,0.08320071801570464,0.04381484444204451,-0.030543570194848796,0.03685657615993789
DKK3,0.015135712926862298,-0.11325750817437123,-0.011023118658657263,-0.09203202437401205,0.01250326122124863,-0.10498751590886868,-0.00883466644460758,-0.2121490378203849,-0.3472054760061631,-0.031100588559026213,-0.04943740293281499,-0.296411426881455,-0.025451591296862322,-0.22210597711009766,0.1476629924900468,-0.13734378700300093,0.07556210487645441,0.0523177357551287,0.04775277486295783,0.03499222956386477,0.054417949258800925,-0.042546395757690154,-0.017342152454891766,-0.0111780532436943,-0.16694681959540578,-0.0930645548305528
COL16A1,-0.11263083588291581,-0.04643965082819028,0.06484878452998943,-0.027717941707900064,-0.030807722918128725,-0.01512311763668688,-0.03817008144594473,0.0711208609368061,0.0897835630581513,-0.03160461292022826,0.05922540221799628,0.04869781688050453,0.11747990913354442,0.18323536665290663,0.15055660191289957,-0.058590856040283114,-0.02777145533322505,0.05371934078667354,0.024277618834893468,0.07556628253570645,0.06603474421941141,-0.03916926649439806,-0.05774155624285506,0.021739338644427127,0.08974164457811865,-0.016571947426739852
TPH1,0.05133974348423706,-0.036060709076371336,0.015810506029757955,,-0.010662738529100697,-0.03460380116617136,0.019759881850378667,8.17375284698041e-05,-0.017851841926083186,0.053516138473519506,,,,0.06322109724424743,,-0.0017039535523627409,0.036941498980731145,,0.03264881984602503,-0.009332679059138567,-0.0029887824408031363,0.0032660908204383337,,0.05826051209474948,0.0134821691861684,0.0019534788766077996
TNC,-0.044350896384154036,0.2069979830339502,0.17132889459269965,0.09036412547295514,0.11109346940563176,0.14248832377682727,0.06418652396047632,0.21054178522159603,0.3545248666545493,0.17826563013929467,0.028194703660453374,0.2142283440589073,-0.18318579713621347,0.231817951905232,0.11010369369553465,0.2611048492794377,-0.023618457531503448,-0.010361052513950189,0.128435204181705,0.06907235087190179,0.07107643035249503,-0.023618344977464078,-0.052405681024868554,0.001930589316183396,0.15294375159894605,0.1403712996881806
TNFSF9,-0.019831548730698114,-0.10935837788608206,0.02547565776918949,-0.05523518180744986,-0.0385729878628101,-0.0011831573662048264,0.0016305412007029025,0.04487530220427124,-0.14640910370593668,-0.0011691171889156686,-0.029399142876137502,-0.03231862435193744,0.05317553832535296,-0.03468526602034871,,,0.07261897285090536,-0.004340816586612946,-0.0028243165450625414,0.07459657140369678,0.03732928884828989,-0.0005834066643170897,-0.0017753583099016407,-0.023101228241893836,-0.0025790161698008665,0.05822873935935308
C4A,,,,-0.04403517207007927,,0.021539942163455245,,,,0.007225832456120299,,0.05812349156314598,0.013740090188031967,-0.03201407538944373,,0.07697643722870605,,,0.051475601350219745,,-0.07991626619172568,0.04950823390700289,0.03336330463303231,0.03846637798886217,,
CNTN2,0.15221143826040862,-0.046809442713833097,0.0010236853114957666,0.05987937659123888,-0.0462700659222351,0.02273936818276241,-0.04784960027681894,0.08771123497416705,0.08002807953375707,-0.07236137099666046,0.028076483267249555,0.3253501640530365,0.006681473490307268,0.09090181041225891,0.004683601020380496,-0.04805254157620485,-0.0403720181009036,0.051299957060881446,-0.044388442212188337,-0.011899746582638223,-0.03261634379195275,0.04275257541040894,0.1165522880015601,-0.01026440283342509,-0.043422815323304505,0.17587988707336055
F7,,,0.021773375792420835,,,,,0.006455814929572436,-0.004230357730572209,,,,0.027109383673436772,,,,,,0.03477304858064494,,,-0.034340313008008355,,,0.010833382077987713,
LUM,-0.05048760256417365,0.0033312825412583004,0.20975905373909282,-0.017090519430005714,0.1021410297676125,0.09283312111966183,0.08523222986825428,0.0354943298344911,0.3016183828455217,0.08619976157921336,0.051819656158984456,0.10219837702894137,-0.06210660219932418,0.020715219162537456,0.25052582273635043,-0.09050068843660788,0.0965938359764374,0.1252895689376541,0.003855647405689193,0.12048901229290553,0.03600659369447943,0.06472730864477437,0.011477308537199355,0.029931352556911876,0.04150044402872132,
IZUMO1,-0.0828154015667017,,,,,,,,,,,,,,,,,,,,,,,,,
BTC,,,0.03532367547744636,-0.07440042758296703,,-0.010286998849688936,-0.028990897583514974,,,,0.03491780816003865,-0.04406865572702807,,,,,0.03686593508077858,,-0.017764872135341267,0.03405324707733133,0.054007574548245715,0.07218665880494411,,-0.0349178714357397,0.06539204123483372,
APOC1,0.1683208969421847,-0.05420214550080235,-0.021429106157870595,0.08174704758017548,-0.07303250141439731,-0.007529593585748753,0.007536672485457341,0.2408503843087125,0.36838086484005605,-0.15075313125729972,0.03902293651524822,0.364991840362503,0.14687580574585754,0.12667284077546795,0.1653409800550612,0.14387495120958513,-0.03588300995845566,0.09690050228610844,-0.17834913071786282,-0.14217163667169858,0.07352650109143873,0.09568728176777229,0.03281979582314558,-0.00581944794022322,-0.07435851034036864,-0.059726677130250455
PKM,0.0639914403760284,0.138503158667923,0.014165765039234132,-0.07229988401836307,0.1327400227804944,0.08875058523268707,0.031023811234451804,-0.08445352517120729,0.04046875284176263,0.12043462421256908,-0.021168072126758766,-0.2543911141068518,-0.06505815772239745,0.17007828018991392,-0.06959195158094626,0.27038157993734524,-0.09992549637827457,-0.06141032569903712,0.21229402103097375,0.1825061384328607,0.08994235552099321,-0.002534745263852478,-0.039878569996951906,0.02672120528440042,0.08713510172097973,-0.018641387948035965
TNF,,-0.08348391613703006,-0.007523680409535834,0.007046476699366718,,0.030942283001891235,0.0062960442213318485,0.040516074511799685,0.01652281400071406,-0.00738283456387476,-0.007737585532118492,0.1401077636601361,0.07029944932302666,0.08778249066271927,-0.021622685127652114,-0.06571468364600751,0.02634966000021218,-0.002701798367784764,-0.05111810175926722,0.018509067854161117,,,,0.04021178380321943,0.0021176362773913412,0.06130158042204978
GNAS,-0.17897998185375263,-0.17890545511916095,-0.09750839076113706,-0.04436632367091318,-0.01557033497822186,-0.111066678234199,-0.025166663666727453,-0.21659369102817697,-0.306385082304384,-0.005827950394604311,-0.01832332246665532,-0.3336547478322361,-0.14501084873820233,0.23735236400550994,0.1454715174633624,0.15743869924544404,-0.009082308948305817,0.04179527496893853,0.07995453327736739,-0.019646058651276874,0.038620666072894425,-0.032401281081070626,-0.10529012128611492,-0.03819771968809917,-0.13691237613502968,-0.06905113645189216
BMP8B,-0.04431047042751921,-0.1072957937828678,-0.005614723437999593,-0.05674236864321335,-5.869698460639997e-05,0.05863075651731986,-0.022227604420987805,0.15604459732890927,0.09948102334355546,-0.0415524268973525,-0.044082678782294535,0.10209171588506326,0.0009137380790032709,0.13443316177843026,0.09593381647955099,0.00245749675067708,-0.08293897941839413,0.19227850853165965,0.10852182390506249,0.07991548322694195,0.014270472899881944,-0.006106229102898651,0.05246196779883578,0.11655887934622927,-0.01796073245106877,0.025714834253225426
LIPH,,0.0076265670591424495,0.026810602432834854,,0.008595276712790673,0.020957230196093007,,,,-0.015441593641571244,,,,,,0.004291713306678947,,,-0.03437794781567706,0.08185248520229664,,0.04707822323217661,,-0.02406693361369829,0.02636059431788368,
CCL28,,-0.08116255473008639,-0.02473892611888001,,,,,-0.004109414644855631,,-0.03665326856971874,0.002803598531854077,-0.06071778106507749,,0.021950875875977643,,0.11296094568893854,,,,,0.03351383626318516,,,0.060927638623120076,0.04147685370060763,
PTPN11,0.053242808311864974,-0.1385052726206965,-0.027273716575261946,0.0212423579872732,-0.023953461929502734,-0.06434934480321935,0.02637937641181431,0.01117700826957996,0.12454631823665917,-0.04940901344047578,-0.036784368705489165,0.11328988155975979,0.07790350558798165,0.06664476346853362,-0.012303978133317281,-0.046714762661891826,-0.06355384113157245,-0.07320746592276847,0.011340204013234491,0.018255909989624394,0.039262404495008695,-0.03761219295841309,0.043931957126009925,0.053920888268919685,-0.043234664606268375,0.013279434856896276
ADAM12,-0.02846424889538278,0.08047112080051932,0.22904115790032403,-0.021185380555077404,0.06103996045796951,0.07612297042430283,0.05083141508265452,0.12463998355700655,0.19542535370306574,0.12311612142187998,0.012065247159016542,0.023337009541681556,0.10311034557043651,0.15893941248319993,0.003975353721536774,0.017732235764444975,0.03155459615233313,0.12024998988225315,0.08650746640376986,0.10416560978211684,0.006020270818592303,0.046016726881938336,-0.004747890402329596,0.02816253017610858,0.14226013905510332,
EPO,,0.10774047284814325,0.00791638922314334,,,0.0016312003736401396,0.02340094589078165,,,-0.045592952163329675,,,0.009808724595502877,0.008564596851512674,,,-0.0064764136092702275,-0.0022496551063489485,0.06363795077863152,0.03765330124105204,,-0.026539751267389083,,0.012017313563353636,,
EDN3,0.02492931183836072,-0.06245391040023997,0.054342056889299016,0.027244486136661177,0.06817648278036408,-0.029203483711456427,-0.03741061301883934,-0.004945857927230496,0.054076029677203326,-0.006103168836989566,-0.01729511920912904,-0.07448564305204462,,-0.07696796897899386,,,,0.004595557882781893,0.07774467932101214,0.10254077157250233,0.0359662586734045,0.10519815161770843,,-0.015833656336286445,0.05375517178630045,0.030880712595498665
CCL22,,,,-0.0036359152198369884,,,,,,0.0038427676466353433,,,,,,,,,0.1045828463411747,-0.03503079262574485,0.07075239535589846,0.02420849648246395,0.09966244695310167,0.059370992296739075,,
CCL2,0.03478436413970514,0.1336030030726386,0.19888737599793588,0.012529981085238142,0.08357873484820492,0.03433148618510183,0.03862476913691304,0.12650051558809094,0.10865334055317165,-0.06572616748193255,0.028457702362299026,0.22109258520964237,0.09705060871233519,0.12025278457013626,0.15366031089073226,-0.03539586522465783,0.09752040844815872,0.12401347205967088,0.02744765579112143,0.06909063333141258,0.024729151569605215,-0.04727694029175387,0.08366213425476392,0.028315669496142146,0.11596660272230615,0.04982744952070691
DSCAM,-0.059193686467969,0.04679769223937507,-0.011196125728871856,-0.008226936905280703,0.04535137295617027,-0.05012476065104156,-0.027668616142255936,0.15760964329463906,0.09805923085460863,0.03164017069422975,-0.024166065720067274,-0.09503336532791698,0.025638392635926047,0.08354330304567958,-0.017094877592671,0.024268896804628903,0.03306821655282379,0.049715531335007446,-0.04296609872902788,-0.023413389510926027,-0.024454233576063245,0.009514379999501768,0.09051440108307537,0.037381615505782555,-0.07944897953544328,0.05971332450364731
GPHA2,,,0.11037053280178571,,,,,,,,,,,,,,,,,,,,,,,
ANG,-0.024929721648181226,0.17529762386584094,0.10975992894489305,0.050542538319642144,0.0962276765862027,0.09222544889847394,-0.033303245895302265,0.05541398404388489,0.16987528626652484,0.12473497601162832,0.02955344240967762,0.09073467110208056,-0.07143788934204044,0.19195420166448487,0.04385242422090203,0.22764319013718132,-0.0853752284950546,0.06900327513090622,0.116559355095434,0.1862404856086981,0.08343603110101389,0.10036583361481316,0.03618951057082622,0.134378408963171,0.13329108450562352,
FBLN2,0.01187666582013834,-0.0248869639585815,0.08005331011348116,-0.08733086874385762,0.015272723870130367,0.09420065645015929,0.056545098571089566,-0.07735736723970636,0.07075109950424978,-0.06928281997323908,-0.015385710591253932,0.02463573430113746,0.03647908703494732,-0.031331717326683765,0.01349934333997344,0.09700399559617423,,0.100246911900489,0.07096698811639293,0.06884808389600999,0.00032770965889459186,0.06494934375649503,0.031065101182233146,0.04291808736422279,-0.03136480463931718,0.004017437594890848
VTN,,0.023094704063803304,0.038701268895961864,,0.020913540681430507,-0.019405967609575754,0.08366438502873814,-0.009593129819939431,0.06104204463616388,0.04897750806454795,-0.018289668434514458,,,-0.010362081813475489,-0.07903115659121233,-0.05066184369830459,0.08134752346900552,,0.03818908095418517,0.008492027857325774,,-0.026108073976109328,,-0.006317474388096415,0.04277848621585191,
VEGFA,-0.049800670584887734,0.24563299351339912,-0.06478850245328356,0.03231927889229652,0.09359895706911141,0.16804469940840272,0.03992485034980279,0.09968218268466786,0.14231688491039513,0.2009356610829256,0.03823717012826185,-0.07430388225384262,-0.1576560605079237,0.25042291867265,0.06461909475970634,0.3673090333831133,-0.17892894117842856,-0.04863225888138328,0.2568548598231153,0.14028182191379626,-0.009842013416376463,-0.03396793734369344,0.14515101386280624,-0.02956508265471655,0.1474764153628901,-0.0524416026582666
F10,,,,0.0067902565260060796,,,-0.04564435946907813,-0.01231707297038098,0.05813148577203173,0.02472541314648031,-0.002733898189896611,-0.023753324520588714,0.06187847669758801,,0.031866824015543464,,0.019250695265052197,,,0.030133313298339133,0.02220651925984952,-0.004016656048637639,0.049389846492286636,0.07781816541826532,-0.030580971805149734,
SERPINA1,0.03232208190119652,0.06164057363684923,0.10812478935148999,-0.01834882645211386,0.026907457033004248,0.022173121133015984,-0.020930196733796043,0.0061268913684520455,0.23343984682999228,-0.017451599382613658,0.025608489953206068,0.23479305918778556,0.09494413775646653,0.09131552809032932,0.06973329328383696,0.13339659756297623,0.08992400446773764,-0.010282446308674791,0.06439907976281674,0.013597950003880725,-0.00432027563761154,0.018491597726155336,-0.028798448041188456,0.07563963466855907,-0.023058370960843275,-0.0399917715387741
VWF,-0.10579811522199649,-0.12614194557860867,0.21280858529324675,-0.03842324848586201,0.03299117341183971,0.004573402037244249,0.08328187699199692,0.1442579469512457,0.3023293170916413,-0.022239028033165145,0.005062542710322561,0.1367478227422926,0.09859382367312766,-0.04342384153270088,0.1426246908955316,-0.10551426386207247,0.2377147086497823,0.20734775233838657,-0.029265301918967777,0.06942932660881655,0.0532492171917898,0.039872291360914046,0.04723837148211476,0.038864666516860956,-0.05978260814759875,0.027109337818716155
GDNF,,,0.031179313931374356,,-0.010783948384076246,0.07597395544521773,,0.12254058583400108,,,,,-0.11314996146408966,-0.009375325511816078,,,-0.0027001583448836267,-0.017201289143669578,0.07120509312500818,0.05784531774902413,,0.008883555544051161,,,,0.03847304245144432
VASP,-0.013850346879094089,0.08296971337894903,0.20117444165287923,0.03990637121867625,0.06879079437864213,0.03275978939320257,0.035330109475580705,0.15108282047602398,0.192986802034566,-0.011526551763738761,-0.029949333450540978,0.10499158142209053,0.041584668979577084,0.10150464457192292,0.20546874081736183,0.09212031797842059,0.12462237221930589,0.1866031114862953,0.1450834899505117,0.07530119379283347,-0.01706752804846448,0.004734900095761004,0.004775642818015784,0.10486764938905722,0.08613060302401818,0.08511762670727603
ADAM15,-0.023231689638965245,0.011222934180881937,0.03444312550927159,0.04346616266295373,0.0022041325492613024,-0.0309993235349383,0.02223482047181247,0.09610515302365441,0.10720164965281964,0.0028549715617784393,-0.028327815198075326,0.08934520520291685,0.05501305999144083,0.07709964415884989,-0.017796058203376694,-0.1315795711900929,0.04787531555034779,0.18827569529304716,0.017161980258607618,0.1847922293186993,0.039470490322100774,0.06350392492332747,0.09289875914215787,0.09443048088903741,0.09201732168134454,0.0394001968681957
WNT2,,-0.07083407160949937,-0.06075672348546682,,-0.00607822102305459,,0.0059124383453115935,-0.06235485880649179,-0.11287200216268616,,-0.09237158984175374,0.012107904173341856,,-0.06108042226058434,,0.04757765100270228,,,0.029922437427587566,0.032501974238942063,,0.006476029560134464,,0.05078586003547426,0.06938596373063242,
CALCB,,0.013768758039020064,,0.0051797051476037735,0.07583541165129508,,0.03471520620164398,0.04324513480806298,0.021199477553053698,,,-0.016053036493506766,,,,,,,0.0024474817767705754,0.0034311507656476295,,0.03518144910717885,,,0.011771555099200488,
OLFM2,0.07608235998915577,-0.036160427734461674,-0.07797227628062436,0.021105943573925656,0.10455005962941202,-0.06369816497208466,0.003811169262581606,-0.02238342571342931,-0.1276676771299041,0.0004932594520811681,0.041736636722279855,-0.07571796931811316,0.12333436542778672,-0.011579449691280738,-0.08238543633041541,-0.1701994130085568,0.06820330776246504,0.06293605471077177,-0.01773084130213256,-0.08242728142564086,0.07963524027632285,-0.07163979830245147,0.03416945529154809,0.021033287058088174,0.012284177934888648,-0.0023154661309517763
MFAP2,-0.009057749115756988,0.009396887836208914,0.24743462774283287,0.041390118409230695,,0.0643749944280059,0.0012234981821451023,0.1577622630777506,0.19819153078341514,-0.05572984760144882,0.012805869536048411,-0.0062048293259077585,0.13144669109806706,0.027844160919692083,0.1589128275149677,-0.08724744031264539,0.13379802512571523,0.17276077988395272,0.0181071096002325,0.046012083685161936,-0.007451803380431347,0.08371400347644302,,0.08710899542611908,0.10041252559907497,
HLA-C,-0.16829826313976365,0.11382219217021664,0.12471158483158079,-0.040756129656988827,0.08002296158364651,-0.009595569246464281,0.1351508216299561,0.17149494793125067,0.3807103621204655,-0.08608528101607683,0.01490210474987842,0.2822559962302492,0.1130704856905806,0.23313162672072046,0.18647709919451125,-0.03161244376651879,0.13970002406779425,0.09455291584645531,0.18049719662200625,0.1377751258052444,0.08409609391928469,0.029377191061676126,-0.02469585995454754,0.09587752698078852,-0.06558606633337162,0.06975758972426743
THBS1,0.05284715017810421,0.07554452052258274,0.11519001054395303,-0.016092356538399535,0.12923989172499187,0.014223545279250824,0.03881385714093135,0.14495932645267562,0.05640304026749852,0.0029079110716169147,0.002707344223586556,0.04058415984502454,0.03234934463527575,0.01581051194616555,0.17020756876044926,0.08168473569013485,0.1545116915300544,0.09408111175877909,-0.09714396560395168,0.043078444616281485,0.018030279039551848,0.05786433967766758,-0.011716188513900296,-0.004520425624002268,0.06309016696672709,-0.017428348104020098
HSPA4,-0.032583118440590086,-0.015358988597272819,0.002682783901327971,0.0013866376416276196,-0.012954490078788778,-0.01352367636225895,0.027640322699436864,0.11593357043410121,0.11740716863225734,-0.057448138666353475,0.03819735203007847,-0.0509644875911856,0.04460589698160743,0.01893167720740897,0.035578575465326744,-0.026515298658777827,-0.019606107923304084,0.03291571911405267,-0.07118464143470601,0.02258926177982047,0.033632519720500055,-0.020064247008842226,0.06938856687624351,0.04226469432614588,-0.042844455275348664,0.08858538569168678
LMAN1,0.006228873932809018,0.14272634154692557,0.08250036561697868,0.0823168603527993,0.11890585181387868,0.058608744506030236,0.033176215581779064,0.14292307397329843,0.27724925954567037,0.11325071249608855,-0.01765962626162752,-0.00832784923142434,0.0436324869277517,0.14098252961023322,0.08847877781926426,0.0628774991640812,-0.0011962863510765257,0.004303947226553227,0.08722382082999346,0.1446184147066804,0.007847333790101552,0.13102918684377698,0.02165488316818698,0.07248990899768934,0.013742171115529032,-0.0017468360692798918
LYPD3,,,0.09755721162125482,0.013875464946498136,0.11770335095917968,-0.014454236638669066,-0.043017854723706644,0.08368325572586591,0.0768141545691411,-0.023774778351939464,-0.00398738850842328,0.05741408906040254,-0.007206033586618069,,0.07230743742481079,-0.01566382394160284,0.08282865692994495,0.010113704734840611,0.03080228215612887,0.010078586674598293,,0.0059129432415421295,,0.06080971312904201,0.01819359085480175,
APOE,-0.04634308164111013,-0.1564189187033378,-0.1967730776969415,0.08809191599500013,-0.03602479429857208,-0.19423029382759138,-0.016108724639192974,0.11649118950693108,0.24726286426903246,-0.14280851914411363,0.02612819957184506,0.32892300711596967,0.12505666835330836,-0.13699178881198706,0.0056496316598689195,0.06702130911505666,-0.14043572676307187,-0.052925658285995034,-0.05179986356045715,0.007020509623021043,0.12122300178666731,0.013594114113034244,0.13782470118211443,-0.09175209816292955,-0.22897327768908324,0.017297201280383638
SOSTDC1,0.026648830971543785,-0.034266114407107,0.044541597301727125,,,,-0.02066713354751812,-0.0646110535588228,0.04396226385061726,-0.06361667479506035,-0.027659178308703933,-0.14242076040354743,,-0.07683584781279953,,,,,-0.0175493807669859,-0.015963950363666563,,-0.020154560287863863,,-0.026343302130568368,-0.0669227519472625,-0.03295221008894629
ANXA1,0.1466728428861033,0.21835510536119374,0.21852392665883086,-0.03688423024551891,0.07309188966352041,0.01663167843658225,0.0037088673291680954,0.24563200273347519,0.33867690524369093,-0.08763382671653126,0.1414504563451383,0.23567002089960346,-0.09315195188026042,0.16079336253842402,0.22649753828745908,0.04092857523058801,-0.05050189664774893,0.08005498657769211,0.12174774365870206,0.19236122054708954,0.048437340597667765,0.07836754756568079,0.039173416825736655,-0.06392533376014663,0.15477309062131153,-0.0015580142873218203
WNT2B,0.01624405139281185,-0.00577459526505012,-0.03056452824170185,-0.004497641862061235,0.01242592299155416,-0.01460522365655911,-0.016903077504123953,-0.02476832133875269,0.13274742801007658,-0.01102230272889243,0.017614882480507056,-0.11990425588742872,0.05845767377753681,0.016410943152646594,0.020194017712909157,-0.08027560644607727,0.06105628890601096,0.05536458086659165,0.00340548512213436,-0.041276280096813174,0.027346979142291856,0.017214773135043927,0.08293856125869958,-0.030013433164568344,0.07583807512654556,0.006618225991750723
AMH,,0.016194265147564692,0.025556117534239153,-0.01763234537866902,-0.027656170964980947,0.06181761749408309,0.040213865709945555,0.06357414635816065,0.01756412122887299,0.013332355009935539,0.0037820159279384727,,0.058229273799814595,0.12325769903384856,,,0.05501528838701669,0.022269916052013318,0.042921215449141494,0.08077388354798007,0.014995684785447062,-0.051356988835616034,,0.04969477181852847,0.016984654677371615,
GDF10,,-0.06200976505671912,0.04222768409906957,0.020856765018781923,,,-0.009522963278147258,0.011649212252464626,-0.056520501476926784,-0.011256805812807594,-0.00563240374026164,-0.024231734436310402,,-0.12485226216485468,0.06860602229852772,0.022556325272482438,0.03324437103946718,,0.04663996832673554,0.027485494279880986,0.01936912171321899,-0.001348014318689422,0.040116205165916304,0.009425181376315385,0.03492026000262569,-0.0005198024680005933
EFNB3,-0.05024921284673155,-0.02118272414396617,-0.025266866320107034,-0.046453478597050825,0.06308628900400419,0.03199167117275683,0.01363701391450536,-0.07559698121758258,-0.12418401199361156,-0.03973167817237701,0.009213427298987798,-0.2152695972270992,0.05298493786222233,-0.12787304769444466,0.03601198016517024,0.043455713268842414,0.04236278081775413,0.015726086114564455,0.09316824237383364,0.02279999685471273,0.05478053885984935,-0.00836869658876303,0.09604889044357967,0.08066090542886636,-0.13849926083253658,0.0750061446817381
LTB,0.06468077402693387,-0.050202192499141575,-0.01610714959204929,-0.01565618742374984,,0.04976370640494378,0.05748406109924842,-0.03487015874091414,0.008037081394461415,-0.044972401478963725,0.01937610999644962,0.10351884511518222,0.07988880472378357,0.0031203617980929133,0.08528869858117703,-0.008593723136199438,0.04292991414478067,0.09866592202273586,-0.016304137366202082,-0.04246060923191111,0.008367171303884572,0.010269830984167356,,0.018013660836026884,0.010949183513655649,0.047981089020880524
ANGPT2,0.02782613427292533,-0.017823322592660697,0.16920670099527246,0.01209660538665568,0.0671086585671185,0.047505179200615415,0.018697156290675518,0.25439603292927615,0.3295558513637294,0.1515226786681739,0.030685828443854028,0.0664603270896047,0.18978468689558636,0.10775268988031363,0.21862240160725094,-0.10184552740655603,0.2325743145046354,0.06575921615431296,0.08796044835483363,0.09695099299900779,0.01876135589182474,0.00588543135952157,0.0011467506059502975,0.11501436422639491,0.0097965287709257,-0.013094852738923893
NRTN,,,,,,,,,,,,,,,,,,-0.0001845197088779873,,,0.07137561923682775,-0.019539944310407037,,,,0.10780582814181662
ADAM17,-0.01587952189047609,0.05767835310520541,0.0019573358290827904,0.024240058896594623,0.0482815000231618,0.03965450516929483,0.01030160880970745,0.10791558183418992,0.1468853311576984,0.01939419471225889,0.030227987111184792,0.09567082809177709,0.06487272135582388,0.11651816398168699,0.1334005690731459,-0.08109829694944333,-0.05538036596169935,-0.00020095413137237857,0.08786385701410086,0.15184003124094966,-0.015856922778131992,0.03306458936600119,-0.014757473240513675,0.11229062184946462,0.10210554007095998,0.037206894421099965
LRPAP1,-0.0764673505159369,-0.02943258779918276,8.502473619588638e-05,0.03258110780874857,-0.0007262098362439294,0.01073188344406164,0.006112363074281346,-0.06135090626029804,0.15325238231280874,-0.008658000045085984,-0.022488321179375437,-0.05225691412368395,0.03640117432754693,0.04179589311054674,0.09314386937667463,0.06783649618394054,-0.028310677801620013,-0.010992886803180484,-0.01698444029907352,-0.005322357421356715,-0.033549322706163204,0.008471645925636876,0.1254916854833726,0.06681511489213844,-0.07384679983984677,0.06421910509936407
NID1,-0.055097932389945176,-0.06476930943643901,0.18395436393332895,0.017321476890305183,0.04463792866676863,0.036019474486507295,0.06428806342637142,0.22171203830019923,0.36364044520862987,0.07846732544104676,-0.017147980003919663,0.09880348881281201,0.1744114015793622,0.12417254690298082,0.24880781750861372,-0.09768817405108501,0.15429509771917835,0.19046980474862588,0.051952121257898505,0.16316202815625339,0.036794368844968624,0.029321546272030305,0.05113448101876618,0.00732776177462624,0.0034621409661644187,0.03201445114883371
