,MGH258,UKF243,UKF248,UKF251,UKF255,UKF259,UKF260,UKF266,UKF269,UKF275,UKF296,UKF304,UKF313,UKF334,ZH1007inf,ZH1007nec,ZH1019T1,ZH1019inf,ZH8811Abulk,ZH8811Bbulk,ZH8812bulk,ZH881T1,ZH881inf,ZH916T1,ZH916bulk,ZH916inf
IGFL3,,,,,,,,,0.06528452985183505,,,,,,,,,,,,-0.010719208268694538,,,0.00544903039965452,,
BMP1,0.05821527693797499,0.007701160609166312,0.24304835937184108,0.025421020924297013,0.042212610155712836,-0.010222338531479436,0.11500624773183242,0.1618677676406945,0.4513302130368831,0.06566967149209699,0.07088206365649723,0.018358037925984866,-0.10259990393615728,0.11178444918816773,0.25431816900755705,0.18802163263519683,0.06233642437612813,0.20471109632176704,0.06231647384021579,0.13604382839220452,0.13677134754140058,0.16577295502415865,0.07370735039510484,0.3432783873798464,0.1225958235931318,0.030323362542635787
NDP,-0.005153036643758059,0.06727314625427468,0.0652487043326324,0.03255556426872749,0.02930665028386594,-0.04616172476146335,-0.03117480721220345,-0.025910872368482697,0.06826293167113902,-0.011512998983287202,-0.025001561944263343,0.005723294946770665,-0.01885823577486906,0.04161518246299898,0.09799960165438137,0.028677107525859374,0.10614224187686094,0.016855554821228916,0.021143376012354574,0.15544543273659908,0.05626691174984436,-0.03835123417730696,0.15173294501154302,-0.0074510272766689185,0.006036544384570161,0.09699306639649347
TNFSF18,-0.009876948033211855,-0.01785052887006618,0.029218323325329563,0.07541971675628688,,,,0.05069482700447513,0.1369091852541195,0.12430905345614343,,,,,0.04050985704242458,,0.07915264353939279,,,,0.04715362173957459,,0.06797252668881465,0.0987565070890691,0.06082319140142484,
IL36G,,,,,,,,,,,,,,0.02019636493412661,,,,,,,,,,,,
RTN4,-0.048474961709585596,-0.003664264564043623,0.043844865029369774,-0.04567180974851127,0.04559985819530364,0.008097892328786572,0.058683944038512896,-0.2695064046532424,-0.4645225827002218,-0.015951453032219832,-0.03633326497465634,-0.09099808681172213,-0.001488595681753158,-0.016111291104639106,0.07195050582488142,0.01177465884541654,-0.02192087435681558,-0.12658560547981593,-0.06322088267802523,0.0372380318512866,-0.1507290888396016,-0.019320584299440953,-0.12771560487737943,-0.013710030473331105,0.017869848570871493,0.0189142252054591
HEBP1,-0.007862693911928044,0.06586617666744152,0.09220563531515251,0.01226730162330418,0.026824261709769787,0.015577725327253272,0.016010470818338823,0.07818383083419654,0.20001569604245123,0.013408476697398135,-0.03764774248976674,0.09554748156885935,-0.0990515259748211,0.058619753828554846,0.10216787052902716,0.03950496864317639,0.0794422415847526,-0.01610615850181815,0.027146997063504923,0.05263968214713351,-0.008775546129279818,0.06602720995076118,0.020106995060224776,0.01112608027809363,-0.03996870915112799,0.05990626704692147
WNT7B,-0.03939637194511896,-0.0316422914655251,0.005291937374199894,0.09647541265312896,0.00029941561185674363,0.04361192020295173,0.043817172810459125,-0.054360648034338856,-0.14300344712924998,0.014073932172402522,-0.043572957981057085,,0.04283578827449839,0.05119017492548954,0.01489828731446893,-0.04925542870691102,,0.10321171034482612,-0.00025750814128234703,0.028981400859728654,0.015904648524785465,0.013601490744837404,0.05090148226261852,0.027538370741162596,0.037850445417147674,-0.044825739575777825
PTMA,-0.07309823270539909,-0.06232114734452024,0.045354320777367105,0.03929373335555752,-0.06560957442337195,0.027943371511818783,0.050086986694843946,0.33063420829320034,-0.26276515154040947,-0.06662932430119553,-0.04132424505550443,0.15797182103049984,-0.1360711526300711,0.006862219364795553,0.1245057028023087,-0.0456283658686973,0.004205505871406353,-0.2521898227724091,0.033168500380992706,-0.00687931867145155,-0.143670032158977,0.08798334657368959,-0.07601786835594852,0.23862046851144972,0.11747093370929254,0.06553414748031723
FASLG,0.06227986722161211,,,,,,,,,,,,,,,,,,,,,,,0.059197775799065086,,
CEACAM1,0.038843106711222375,,0.005250707483257879,0.007243540436250709,,0.010269935919990661,0.034945061818620116,,0.12247663378258607,0.013624226517045614,,,,,,0.0826644054703,-0.009035664709285194,0.02268216352411248,-0.0044263625684985985,0.01623170726261505,0.0381512202205438,-0.028259801584449074,,0.029622286318021114,,
PDAP1,0.015385459575786586,-0.016275331912157492,-0.034109108088229485,-0.0032149399126948173,0.026206323000298192,-0.0012300408107933473,0.0660858675059848,0.15345514108035224,0.3561451889453324,0.06297061128492248,0.03676781665665369,0.05240785806257266,0.03681661970942733,0.05840277348279789,-0.018886330532434843,-0.10812741341022596,-0.13086267872748603,-0.04269376970925843,0.027784876901156556,0.014520184645290889,0.020755422585727358,-0.0013577720822130841,0.032601806333591,-0.06481044836958068,0.05709553617456686,0.04523229801132574
QDPR,-0.08135838161391437,-0.03027332521963623,-0.11731083442803071,0.01040004121108313,0.008162975847074153,0.0011502158607295757,-0.06810581016510261,-0.09826452864903039,-0.4261900057467991,-0.0008569389628330065,-0.012863425918804728,0.047867064319318885,0.01904215190138088,-0.006888113637064866,-0.07449192731070348,0.04151932897067457,-0.0611296379175567,-0.3027990833606459,-0.05594795369003279,-0.00776511243304753,-0.07804438733457925,-0.03708913785751087,0.10310494422478238,-0.02023051621880706,-0.07526665519140395,0.10258363087522485
POMC,0.02363907701110473,-0.04304497250392509,0.09877481763615513,-0.01414161983849157,,0.005008162996207685,-0.03727873831214641,-0.020958342260935087,0.01235290692191152,-0.0071143435774929185,0.08510696877031768,0.039446666765566955,0.003665141376710093,0.018472647291642445,0.13621844989885426,0.03509234556958077,0.11194727688941325,0.08946722078082384,0.0025962414402905367,0.02308059845190974,0.06131794188042024,0.02357872328554046,,0.16461232152099847,-0.03121444249791883,0.05726299399030993
CCL18,,0.023052299683861386,-0.0746564198263659,,,,,,,,,0.0894800479053313,-0.03486342859934003,,,0.12461876026747686,,0.03614464915392753,0.07560410106365491,-0.01190925832518685,,0.018840162650563697,,,,
CCL17,,,,,,0.006641155752837365,,,,0.0022179900839438033,0.02489550279748343,,,0.013456200906670032,,,,,0.04373587886280893,0.13073024086472118,0.05504155697092898,,,0.023266651882679314,,
VEGFD,,-0.001387010026306307,0.025094201168474366,-0.026037048970903722,,-0.00825825045998788,-0.0034513209114765487,,0.08841691194502582,0.06447707973578509,-0.003909893456240484,-0.012602937257549986,0.01622000448248517,-0.013673912802548236,,-0.11823847929917669,-0.11725800094728618,,,0.0302515590716587,0.0392168829238948,,,,,
TNFSF13,,,0.048197978076724164,,,0.0031104264547334544,,-0.043829847386050225,,,,,,,,,,,0.07608722993169267,0.0007007880656749676,0.11363592285660225,0.022943119902841595,,0.08231734056894191,0.005356354850102868,
WNT5A,0.06698818290960777,0.08237354750131384,0.09456825886968076,0.02247044302458149,0.0772075451940583,0.016297285106449753,0.05358647361201682,0.17273763087532978,0.2745257496074669,0.11254280918486559,-0.013773170240675895,0.01795939225520618,0.005751302778558436,0.049448166427874404,0.08582825792978159,0.015090433207276151,0.0764566631855978,0.14352886672018422,0.004140901337453071,0.16441839401923194,0.05219138455518448,0.10629073228966973,0.026363229074145622,0.2395975765976424,0.0720742313550784,0.2328091900426117
CXCL8,,0.026143399910898174,-0.09153084087992096,-0.018412089910326,0.06462970828567575,0.028730068304615764,0.09080930220346219,0.006670942665630675,0.1539161806752613,0.016251465762751976,-0.029510758369737426,0.14920691630217253,0.05778043397000986,0.05356848288565476,,0.060789851378236275,0.012066808668359172,0.03900749273760063,-0.02068303601474901,-0.013379554492134757,0.01725739575252464,-0.015204507089136492,-0.021534849423413768,-0.038833185919429296,0.1381607234968214,0.00032994936877742565
GRN,-0.05973418389677973,0.06188766510304778,0.33069219326990557,0.08663926214266192,0.05931025701516476,-0.014988330281169193,0.09554686444425124,0.14854847168290763,0.3971426642058089,0.041031971148161976,0.02214551848464733,0.11229324652674748,0.038543939788345354,0.11743801157396222,0.06163070187073629,0.15472673272913132,0.12615294693262463,0.2029125676913083,0.15755773115251231,0.14133082740917943,0.19776503564715667,0.14194807193434994,0.15889802493513455,0.3001896543891298,0.07855548825373213,0.1064285937961838
MIA,0.005287566786751844,-0.035146651686152545,0.015763128493589344,-0.028306565167179453,0.01520064452528546,-0.020024428230557022,0.03920424414943876,0.050820660709053854,0.09977300592166848,0.09125442619385014,0.040409982990496994,,0.0038624333125248543,0.07400765818572128,-0.02361886190296574,0.024535903260254333,0.008494157422923192,0.13460947811847415,-0.04776492181649635,0.01281818975075972,0.08629941288561142,0.10279855575655132,,-0.012915760948417088,0.05212180200987575,
COL4A4,-0.027430709531779833,-0.06909937774975594,0.0332708585709866,-0.006958704304879605,-0.03042521580727666,0.028339470622404765,0.02193173106827803,0.040358208593714244,-0.02494661339130442,0.06760590243604048,-0.012609283783311203,,,0.0034120618663995533,,,-0.06762042347888648,0.08948667164864174,0.023621452665042477,-0.022797900030277016,-0.0177371246602947,0.001230766465644543,,0.0669900477207435,0.06007364497606586,
TAC1,-0.02634599076207227,0.007521466203003601,-0.08321498346053374,-0.05343890071138741,0.0020026139144627892,0.02108580263898797,-0.06421031560694218,-0.1434143378560483,-0.30053765507937136,-0.036854034681110585,-0.009294383952120804,-0.06552806592557223,,-0.042855104870325136,,,,,,,,-0.08336609325801685,0.0549071046148373,0.01870523205443277,-0.02754341690898772,-0.06132541669989423
RARRES2,0.10814411404712194,0.11317455946788493,-0.11243658301545888,0.025346805787333216,-0.015343069794233269,-0.017575408275279227,0.03954806285976302,0.07931981213796024,0.43251531899386825,-0.05253474508169902,0.01621584934520702,0.06700623613348373,0.260324093022289,-0.008254683293542146,-0.05507264906147127,0.04130537715584922,-0.02089102093505086,0.1476969501450756,0.011318548698766962,0.08033518411110815,-0.037527807061314755,0.05163959633614733,0.09032443083413415,0.018288643236515696,0.10646673015669021,0.08525881005137217
FGF7,0.022186010089670017,0.11013933637748037,,-0.0022660974794065695,-0.045387727084958036,0.09351867491100377,-0.013029212389989829,0.029188138026544196,0.11284409149283249,0.020270840411122933,-0.00561746390134243,-0.04763863593345809,0.04641852949878132,0.007176555857417638,0.08962107654232887,0.049765628984904234,0.12093597038211501,0.1418335019168103,0.01669427322906262,0.008828758968420048,-0.07615791827922955,0.010389225647237267,0.05980304293341212,0.03968242501038262,-0.004484628345238892,-0.02670790667370444
EFNA2,,,,,,,,,,,,,,,,,,,,-0.0659981037260148,,,,,,
HBEGF,0.019829551529272856,0.1296244545134325,0.232553817247318,-0.02699700261368364,0.017429174553391564,0.03573647501076511,0.09855713297226594,0.183997694729237,0.2004294845461836,0.13481279944870944,0.04674078832752304,0.11724714475836065,0.04527179596878498,-0.01045464583223414,0.0952139565903193,0.14881500614460824,0.05439878458244684,0.18249594958472684,0.030667403335830533,0.1076092952149114,-0.019001172100741436,0.06367650833834503,-0.07380121121435973,0.1344015952090762,0.1618599636490235,0.11759508673748692
CSF3,,0.05861169292248505,,,0.024157731359891403,-0.07472649527217012,0.08289986561629245,,0.07301388184446729,,,,0.08884991725035249,,,,,,0.1205813045013004,0.08470783898243694,,0.012915180545476489,0.12545579210814736,-0.030001528815334213,0.0738601883119742,
PI3,,0.06134905870312468,-0.024059705669670604,,0.05917953642791401,-0.016442111735222503,0.036828833075710686,,0.0907431564609332,,,,,,,0.010816856140962726,,,0.0888007145963341,0.04460951730764069,0.06743053854551874,0.02866634205642695,,-0.14317901157437318,0.06214231429832664,
PCSK1N,0.037839065025453984,-0.06344137515755147,-0.018042130562178984,-0.008366019001147343,0.026351209354456225,-0.011514390646260189,0.03209202234279592,-0.10967007463696438,-0.09459574604391492,0.03712902920600099,-0.01950309681672635,-0.12930031191883834,0.00432885709610666,-0.05344249455636096,-0.055105162673734144,0.07602862880815951,0.013104700049430438,0.09679983194392137,-0.05293504529582298,-0.02963317372817862,0.08927695196818293,-0.023475642635627132,-0.005214167788905894,-0.08042138258893862,-0.07561335041294193,0.10983427890296724
NTS,,,,,,,0.00301348503145646,0.004960984313118935,-0.0004913394327562674,-0.02744872772988199,0.02821480224063924,0.1450098711132558,,,,,,,-0.12652799909617538,0.013035130504786238,,-0.04273720953014308,,-0.07448968528328209,,
SFRP1,-0.043652422604860824,-0.03553528068856872,0.0008884511327069725,0.05069203795128174,,-0.014833640274465909,-0.056040357032115816,0.14273113413067673,0.06499488913511069,-0.007576893899265489,-0.0009390436385643059,0.0370482054754918,0.009759470148413484,0.038791168864398144,-0.062212370490395616,0.02506686588575241,0.01275641981070532,0.03366919749682345,0.09017902367706904,0.09095536308072408,0.010676654248952332,0.027857673604289427,-0.010553696093757291,0.1349775648651816,0.004299361824721298,0.1330963688679247
CXCL13,,,,0.023776740824212557,-0.009171201677393657,,-0.02320243062499297,,,,,,0.012231989580488154,,,,,,-0.025487443074257158,0.128884048085965,,-0.012022380233542053,,,0.12595469917126376,
MICA,6.0612141371848766e-05,0.08400398697189555,0.16771923629588073,0.04892894303092793,0.015811571048816572,0.07086479893389193,0.021943290909414114,0.00990370188122559,0.25012004836640916,-0.026353187175133408,0.018217566281679004,-0.0014818561297469043,0.13037750305984874,0.04423698166604382,0.17025692965165695,0.10059883793234713,0.04079179880867893,0.13460081376638794,0.04846943149593287,0.09160806858082723,0.11507620448921115,0.08409944258711534,-0.05154208309765998,0.20841637984587724,0.10420037536220626,0.07186259444816341
TG,0.05419040271211771,-0.03660977281754822,-0.011244395525526172,-0.03986946361795926,,0.021525095299858285,0.0034347372745934203,-0.03790389421703149,0.10381830703778754,-0.029771564664964154,0.07851276660305676,,-0.04770181047789984,0.004547668816272006,-0.009172036593588357,0.023496664183697804,0.012119354607168219,0.051316504577770636,-0.050041904014346536,0.014863153897800926,,-0.0032577750869901335,,0.06726547925389222,0.04051283129207413,
ADA,0.02707875725136573,-0.012984011705466415,0.20707541393986456,0.050977824708154984,0.06994460206130819,-0.03253623218426217,0.018681589644056272,0.07640494429756756,0.3044322575647807,0.020420419208768577,-0.03561222722188607,0.15076365300042183,-0.005796014497867624,0.0561711429223853,0.011290273376855882,0.05967513121046287,0.06268313220548463,0.11797493238720189,0.0657000866057921,0.0621574065509586,0.10600452259763994,0.07500287425044971,0.0892431515503715,0.31069659933622107,0.05204058601559041,0.1479123883601819
LAMC3,0.07253582281503913,0.026913356617057477,0.3995611321487584,0.0008172515621124166,0.1136104277485953,0.049113377958531386,0.01464402015401812,0.1460895960130375,0.3661580896427469,0.07713502235481183,0.07422452031058088,0.07288405030733192,0.06652960475532937,0.15280794348372176,0.2818342583450353,0.15776977523752486,0.15213593147553767,0.20215165929944193,0.14097672063795452,0.19660978349762354,0.16246547933395108,0.21688232932078405,-0.022720574602209807,0.3413187855762366,0.18423972486531684,0.08205209776707051
CCL7,,,0.04110374008624086,,,0.002745058080596136,0.02935799575773406,,,,,,,,,,,,0.024074227350580353,,,,,-0.02127387468394618,0.07634323540852987,
NGF,,-0.04859669248437593,0.07382632772784575,,,-0.0037824827881576,-0.01439455003373168,-0.030016098429272647,,,,-0.023593741465247446,-0.021962400807485755,,,,0.03817528978105377,-0.02345990501413155,0.02093630886135939,0.005205639965267413,,0.05995458362760777,,0.13824924839534045,0.12004497984978808,
TNFSF15,,-0.05124062132154859,,,,0.03780940110742395,0.05460345222639977,0.08051976422998702,,,,,0.1040950716761913,,0.024589489662826522,,0.014136540150687176,0.02004932536744688,-0.018365660726029395,,,0.01220055234791785,,0.12182993728476478,0.04497519000721389,
HMGB1,-0.08035409656766451,-0.007600289379072149,-0.03550116376203418,0.04946873456494201,-0.007819923742641764,-0.06733978293845953,-0.032886383651525256,0.19128123751111517,0.3019221948935663,-0.07751584534353007,0.04828139233798071,0.007586979504043353,0.07915933255886375,0.0735431165354741,-0.0922509377385076,-0.08570199891188292,-0.009782133519366567,-0.16161242135797332,0.08534685613632646,0.052719960780813147,-0.11716610993070964,0.06966538329128456,0.053128648264122655,-0.2037539321218217,-0.06705814600597225,0.0690036144491707
ITGB3BP,0.022347954444647943,-0.006891712107081012,0.0004314274706295878,0.049217622860135764,0.017699778410286766,0.019642907749785898,0.02806404733111915,0.25262924934399605,0.36003649767279255,0.014434570206021253,-0.002666883854701298,0.04576963265163536,-0.07783750222415332,0.07324923114836737,-0.0013022903628630161,-0.05799938390964135,0.03438138273101145,0.14596677960416793,0.07092704183192622,0.04081461414206935,0.026847735128983606,0.0019620205008231864,0.0739234865030867,0.09305592587897253,0.016136976004929818,0.05012722456045048
AANAT,,-0.0028231403183827755,-0.010073176867188218,,,0.024253005190233146,-0.016471892307249308,,0.04236108966323007,-0.0032505952741296823,0.004735072740689163,0.06259592362937152,,0.06126745013709674,,0.013251924059465821,,-0.014255587912216932,0.028871218186043424,9.771430943288809e-05,0.020001084871679807,,,-0.02667748429038901,-0.0016811422430002194,
RELN,-0.013902232110252695,-0.009044596294120771,0.021116187395831702,-0.028807374478551927,0.00968628974662576,0.0009984172794572962,-0.01917916016142,-0.06065538906755214,-0.04770572918896376,-0.038087198658404736,-0.021490701257608092,-0.019777656253611955,,0.016769731197514383,,,-0.030715107742598603,,,,0.0007581754082586281,0.05293052678987742,0.021750476324154396,,0.03583289889087639,0.035137078689833755
IL15,-0.025966965072017855,-0.02520665534807252,0.07296116465660131,0.021242940952199148,,0.004502483973456704,0.010766214050318051,0.01040128418138891,0.10048474463407049,0.002375412166732443,-0.02241514938399225,0.08659903115224539,0.08036167589268987,0.051354034516082184,0.01879269200808835,-0.07770862581498489,-0.01879691042254641,0.05435772243335567,0.0014610250230862206,0.0538053357551629,0.058867679911764004,-0.03424351433423576,-0.002585822993479946,0.14266511189096354,0.10708187655262981,
UTS2,,,,,,,,,0.20698287009925154,,,,,,0.06494910282684227,-0.039032607766366155,,,0.05652848332883397,,,,,,,
BSG,0.10379230967490186,0.022292263513371866,0.07825671361347829,-0.09997333063872167,-0.06754158350471305,0.036245226916764836,0.058387428496866435,0.06477545358741564,0.04625681346263328,0.052906970638929546,0.01713769791970547,-0.07719895382562132,0.16119237247345364,-0.026411115707405095,0.0464477568956117,0.13030718662659904,0.17755782785806448,0.21441311886133288,-0.027503682524678053,0.07424987230242239,0.21343910122915227,0.0937874247895638,0.11240995172232127,0.1060517603194837,0.03079116202233641,0.12051405838615227
ADAMTS3,0.09433268046814049,0.023710536453031825,0.08123295059323546,-0.00813158497895921,,0.013675189698454392,0.05301568660173789,-0.015718274011762526,0.4587572141950045,0.030679092207989884,0.0664981273103138,-0.01833809843205258,-0.01964923977430546,-0.02405722366268058,0.18725624113548595,0.03064507024502524,,0.12319912853903829,0.03997490175289579,0.08331088668255186,0.057899373705427644,0.028373260231214285,-0.01232431321939663,0.10104030002278233,0.09056138265849378,
CD34,0.020276100936235265,0.030824545893713383,0.3506938129738164,0.026539231757039122,0.11302028085126548,0.07421801939385526,0.05390930864478893,0.13588778979027677,0.2985137036243254,-0.0006544543624163035,-0.02513884302385184,0.027421706015037486,0.045000215601273354,0.07749070521916436,0.1505088995044365,0.1624725362280278,0.22682142699807853,0.21794190250951173,0.0990019242283426,0.15141043565329323,0.14563768753471365,0.15924788924816846,0.08515523775110057,0.3913027322115,0.18201504382986763,0.044636222465399805
CCL23,,,,,,,,,0.07008191071450033,,,,,,0.028448067048193797,,,,,,,,,,,
PLAT,0.05132196149922159,0.04455611818198767,0.2505233129256085,0.011781676814070502,0.042886208107760795,0.04840767629705981,0.16702935788387646,0.2450597988768935,0.4218018807077751,0.11980920644408277,0.030190184235199116,0.09466711555120462,0.025147776768877635,0.10063574514640777,0.18525978523692602,0.051978225708108915,0.10702351547882455,0.16623628363775014,-0.02045590043715142,-0.051007875508290876,0.1553485611551372,0.07799527629646544,-0.0014032001860240114,0.19225194490562708,0.0981529888114536,0.05040842665965698
NTF3,,,,,,,,,,,0.05472354934333613,,-0.04271413343833589,,,,,,0.016252221336838745,0.006363085847009265,,0.0032350493267493284,,,,
LTA,,,,0.1064112511813746,,0.006015965890675491,,,,0.01826614504184819,,,,0.017234464400481538,,,,,,,,,,-0.005877446485918989,,
CKLF,-0.023972814093278765,0.026526474575130413,0.09477133616616785,0.03282064087791574,0.07402043233750323,-0.06786248170045706,0.04321636959949011,0.19508155820742573,0.4201522837731315,0.01065000356509897,0.010071751507020577,0.08841673487209117,0.021662922535237362,0.11883748032911001,-0.006983629956248072,-0.00037091234893842464,-0.06074342183027803,0.20846538472252807,0.017805599971277744,0.018622214066893086,0.029497251307757176,0.04676043043503883,0.20393987518802562,0.0058526688425768435,0.05743661659860182,0.04458063745280263
APELA,,,,,,,,,,,,,0.0786611901466233,,,,,,,,,,,,,
CD24,-0.05643510018535378,0.04875693907433076,0.06868386872337486,0.07165276681793106,-0.02480014274429337,0.0362555810607694,-0.02781481100012044,0.20807840860938495,0.04869621417261693,-0.01927983339562258,0.009424706820496901,0.06492698416371652,-0.137159802194284,-0.014511731684094987,-0.009156134666713573,-0.0842275237833091,-0.04854492815982293,0.1880532213993968,-0.027757784530912304,-0.0492354306622971,-0.020496319424598553,-0.1229784321470732,0.01629665004946979,0.046044999847936356,0.08516687538615351,0.02192098638143121
HSP90AA1,-0.0980363703052207,-0.10583357295309832,-0.16376975057235543,0.07221525886597983,-0.13840435785915584,-0.09259663529573547,0.015404646950624627,-0.2351630450215435,-0.46189907000947084,0.04810065843559466,-0.015867753468815332,-0.09141844074782401,-0.13674824197226093,-0.05496232364904222,0.07586628333032265,-0.030395981924640193,0.037196381173029244,-0.22370425829489013,-0.04068569131146646,-0.03749512214012404,-0.04992081741881915,0.005672172949668044,-0.12434174177962619,-0.2479936158819709,0.00030625831097454566,0.050372613125671636
BMP4,0.1077795181124134,-0.03613068300462107,0.14905332235779833,-0.028777524741461984,-0.011541752838008072,0.04053026473381555,0.010381777061300038,0.16168276695924416,-0.015734851862517427,0.007130041937807787,0.010810791911439832,0.05504798043709126,0.05272901784340936,0.04851323192984404,0.15460229683602036,0.06806592941193151,-0.13796098147888317,0.032862657294593554,0.078275524869945,0.09135489698725126,0.1714309057354755,0.08385814746752825,,0.2023993768205111,0.03574630734347916,
SCGB3A1,,,0.0674150796500697,,0.01863197664465856,,0.0007204663792153209,0.007022598104593651,,,-0.0012298694740824098,8.153480437947389e-05,0.016032344971745438,0.07825978183755479,0.017774430297420436,0.14213425488177975,0.09454175173336496,,0.024889947239490687,0.03320292980925781,,0.008746330545868505,,0.14261115538966448,0.03116350232624763,
IGFBP4,0.09223145343821598,0.0703243965408682,0.3784830203459775,-0.06781204401826235,0.10119101134783488,0.10770315135255852,0.08558923271510491,0.21851818456124042,0.4301367141469182,0.12458061443254752,0.05444399931369527,0.07461953518900935,0.03172329271197173,0.09343004979575617,0.2799009329556497,0.05645566187738875,0.10502917272655136,0.2500683920672019,0.190680375395953,0.1468689934632582,0.21624417911797492,0.2774262527973908,0.03295580840742412,0.4532751475171178,0.19987489301760486,0.17340797146920278
RSPO4,,0.012588641722356611,,0.021488370672526923,,0.037603474291701744,0.07090981621648962,,,0.018018361401485702,0.018324876885470524,,,0.0492150783339708,,,-0.008526074310534131,,,,,0.012231938691759207,,0.018666776954600988,0.014736860598315053,
LEFTY2,-0.0355527574790198,-0.051344708613736086,0.24462417921481555,-0.06141016341560651,0.07960788314229376,-0.00938258975628076,0.02815588154790416,0.1749640066242211,0.41696696549981027,0.0712016071256478,0.01560147214738824,0.023612268346846786,0.06910121039260438,0.07715534842138416,0.06976119497675962,0.09328986643807542,,0.08882299333131873,0.023352713105203603,0.02403335705539449,0.1541837614518828,-0.02335713976964756,0.020913327671177647,0.12916326715493548,0.11422508197661418,
PF4,,,0.009108365915110729,-0.036097022629312754,,-0.0520155075205482,,,,,,,,,,,,,,0.025190075839304844,,,,0.015106995256431548,0.03628186825510941,
ANGPTL2,0.033829759031677,0.00815183820773689,0.1713964917741958,0.014390679234007931,0.022317363623265973,0.0418225778480553,0.058584559463408084,0.28792863471411917,0.37183654012343653,0.014643819842335338,0.051234809520949054,0.04040912407351652,-0.044860280280671246,0.08427043460858948,0.12587101797860595,-0.03154750462826801,0.005099995742943246,0.19723648632757193,0.08862195750996933,0.06987165619317089,-0.00017630163579414345,0.06324979279841438,0.007508534914852137,0.23775712114597852,0.0748491449085823,0.11678027389715459
LRIG2,0.1031888024702673,0.07698743344993901,0.035475398982738805,0.024487885925631073,-0.04305103355124693,0.025879208944117698,-0.03098182893311403,0.11797163058562464,0.1848001813105577,0.027387185916993958,0.034103615863137655,-0.006506336060774612,-0.051176960452541574,0.060744618242617045,0.0698747659271369,-0.05557126677083526,0.010527906948059449,0.1855191495777457,0.02977530515282138,0.0546585680289418,0.05741722902320003,0.0402475121628416,0.013367693998633624,0.09839496016576295,0.027611896150195277,0.0077761288372510265
ICOSLG,-0.03288112239885715,-0.023715916438516216,0.11748628066809365,0.0186487138371805,0.02221407408333408,0.0062359384133766375,0.020205644012703833,0.18115743207791724,0.24322635013941046,0.07296611581540338,0.060497934758951176,-0.03787405413634247,-0.00936743447964633,0.08021248847051494,0.0975902298302585,0.08175876203884058,0.01934390800722383,0.0961586325891387,0.08566148651306313,0.09608553012294649,0.0445022507738047,0.08738902951784337,-0.010233051465413416,0.21630143815521835,0.04539650674621497,0.08409603201552338
WIF1,,-0.06337528362522094,-0.05063279081857238,,-0.01088927957603068,,-0.007527653376676463,-0.19958169555312896,-0.26300809401990055,-0.019822843494152528,-0.02105978217618767,-0.00550258665604044,,-0.034304819425126365,,,,,,,,-0.027401013382064437,-0.007352802019757255,,-0.016301148759195028,0.08276406071676473
NPPC,0.020799578084861627,-0.014500988174742267,-0.05172491537087906,,-0.009559284400999858,0.04140512658132753,-0.045796748402337176,-0.0581491206919532,-0.04770761888812775,-0.04426947403573147,-0.002626817317075647,-0.040460544975506794,,-0.013787823668653354,0.003676196282705604,-0.07478830526463602,-0.07107531465596037,0.008440698662259183,0.01986711705594432,0.03432561266151683,0.02700313983958382,-0.01094523801216786,-0.0019921393852226797,,0.043064006537558895,0.1719912119528124
LYZ,-0.048016023619489916,-0.012845594843623387,0.2068183375577621,0.10744761232057105,0.051241601882703415,-0.01671311327841816,0.04980586797591965,0.026064925316056427,0.3160811602316353,0.023010460886880406,0.017284342930828894,0.14580588198799196,0.1056925938564971,0.055501552727207894,0.036587215887677126,0.10905546827382187,0.07111136260893502,0.19550593168186212,0.2003296599997004,0.06389551135253531,0.08975365670386345,0.0224430189682538,0.04079322612530825,0.21479329560770508,0.06409774199066863,-0.0024805916227954106
EREG,,,,,0.03764562326266641,,0.11208277742566558,,,,,0.024904260267650694,0.07265780556407218,,,,,,0.03968646279990118,0.09846744135190734,,0.05357609876014501,,0.001978695537787112,0.025813169120931113,
SPTAN1,0.07526213796095475,-0.049918291848232633,0.03613504721769459,-0.04353868363076851,-0.05345271891342772,-0.0007914242999660466,0.008573801089176956,-0.07066968556248536,-0.1220601915026559,-0.02876568404789589,0.035670580626880756,-0.10626871251840536,0.07401013921693021,-0.03649071074876885,0.015044000694786633,-0.026794099472385306,0.09657833692381255,0.14877166164079866,-0.016049720344254677,-0.015208699583435013,0.04533624183304876,-0.08588627714353916,0.022990663550081593,-0.0003323921649528312,-0.0300110640379798,0.018671743609891264
PTH2,,,,,,,,,,,,,,,,,,,,,,-0.015100571414998936,,,,
LIPC,0.06644924037706018,-0.03506265162051689,0.046596623210328446,0.015519149048644182,,-0.020120736800860257,-0.0031482230307498223,-0.07804914038929124,0.10784791588318349,0.05108304212783886,,-0.024194245443073532,-0.02716403899127135,-0.003617547360483556,0.0921106640083384,-0.05337148805867979,0.12134182788613526,0.07690364157017826,,,-0.016634709141804913,,,0.0823681859852094,-0.022592394582753875,
COL8A1,0.008990488294933544,0.10040487347042847,0.19881208887197854,0.007713868294593055,0.091263250906481,0.047662642989791046,0.08188253831114248,0.16553398184035148,0.22109895492936363,0.031180534539801363,-0.0049738120738120435,0.10777986699484222,0.15795052121924086,0.029170969432538926,0.1315210529853325,0.0647782087918994,0.02290968006824186,0.16600262127185042,-0.08063175815033256,0.02027298687660576,0.08975324262337687,0.11443437528799731,0.1783185925595585,0.12277059675190471,0.15944226327893044,
GSTM2,0.020330283930308737,0.041285227589504904,0.03696087628339798,0.03430366823933526,0.00931030119969839,0.010416230319778232,0.07683265627964242,0.013532163600799285,0.12058675915354122,-0.006454822701197298,0.03963948832370175,-0.09310601824431769,0.07448396158420716,-0.04717232299771845,-0.06756551491285412,-0.02422827103577571,-0.02269347894333173,0.05620267157957424,-0.017902714012434835,0.011259049089729405,-0.02815996252839399,-0.026840327496143603,-0.015018996182684822,-0.03007858791056459,0.07196271904349048,
IL4,,,,,,,,,,,,,,,,0.04287125441785809,,,,,,,,,,
SPX,0.08251888727577741,-0.04288847988426138,-0.037481376688911265,-0.01892378398858519,,-0.03966805923798317,-0.06600443228625782,-0.07224579831168947,-0.10755903183698708,-0.04984843829372777,0.03078204836096564,-0.14911702382141773,,0.013044790623377031,0.07806772784535225,,,-0.009878909600193322,0.033744946425653,0.007547962540481745,-0.09679073623794775,-0.08149689222903445,-0.021212299927756126,-0.05443824865652824,-0.0438727231118462,0.12266933313758123
MFGE8,-0.009649045090180604,0.18542272351638575,0.2627403856201899,-0.046992345819753964,0.06992562029024867,0.106650725636093,0.08604004615843205,0.08758165162871688,0.1433891838573831,0.020910094553256556,0.024525476528050268,-0.016973888008648227,0.15642404532444812,0.08737373901125889,0.20812977736657634,0.23264990097127303,0.14071662591845552,0.20334551522395553,0.05732786592725303,0.06942450186929523,0.18494880314784937,0.1819151275003878,0.16801450110047275,0.3127947425854987,0.20930709778925347,0.13275677274751374
TGFA,-0.02084715757474115,0.05845446713611668,-0.014008125839338071,0.04422405466826566,0.10753993591787421,0.0016932120044199938,0.05260592157892982,0.189098454633207,0.10453562476192654,0.0010328845873023393,-0.010514651915387127,0.037588033194159515,0.03936369751895762,0.09317978824264607,0.0188189332400791,0.04070127332303285,-0.02944954215183328,-0.05725217091334621,0.08309356377965076,0.012595713866340027,0.0048037619219008995,0.030077246963776404,0.03196198887259743,0.08212353733202023,-0.008724845051827038,0.0065751461912952934
SLIT2,0.02369548940086171,-0.06777101081020742,0.06300730098027231,-0.031282376165091254,0.04422311675646836,0.03258244140366867,0.052411361312125045,0.007823253357948203,-0.0951551035448445,-0.04093176421771831,-0.01798651690045815,-0.028279512882294047,0.016489047926700307,-0.03860026128425093,0.17176626556625335,0.16010647212293083,0.07033476217058122,0.06304216643951785,0.023722450748990334,0.020231889716785637,0.031805300893568644,0.01704275533342891,-0.008502804335583806,0.13465224133621448,0.07793676613828392,0.09213045010392934
PLTP,0.07123458263573511,0.11719654356745723,0.10395302086722859,0.007326107715224516,0.05461055808330768,0.03189479998347383,0.10921666068377144,0.06547112288988953,0.41610881560123797,0.024459077414196513,0.0038430145948024526,0.2036008615712155,0.016725985724609715,0.04350977039791509,0.10049177928432096,0.013611413233103642,0.07062163848673052,0.2188568357121382,0.12137430408953628,0.08970248266577319,0.22011118726975082,0.09968564032340002,0.08811997063381723,0.12426940578094962,0.016265444449918755,0.06448620932820219
APOD,-0.09039725884729492,0.044228533771415536,-0.001204906483222022,0.05632218676725857,0.021522983203824744,-0.03739355577401386,-0.006428685750453582,-0.04666348915037214,0.1111154697112723,-0.008297327378537944,0.07467339523248014,0.03846122936641365,0.0580844140429554,-0.011359785601401516,-0.05792979961088101,-0.08135176464625547,0.04263166439211098,-0.2660089398592124,-0.015577236191303544,0.029405402193949406,-0.12425569370078743,0.12365270105054013,0.03641716193200648,-0.01176123917248639,0.03793783052146616,0.0334024739476106
B2M,0.037548482817566994,0.05395129869659472,0.2871539050818376,-0.007842568224850185,0.04788473076651059,-0.029319080897203476,0.06515105138100719,0.21583712740429517,0.5234525510798461,-0.028352931016819207,0.08892801782890544,0.19545870458501474,0.07089013891490879,0.15512409662413323,0.215160559591307,0.1709818562566101,0.0966433851575094,0.17558166915870987,0.1864991915271123,0.19349667578174704,0.17881284048966595,0.16843456880228827,0.20187547761174654,0.2674845550955336,0.05773965936129084,0.020286883342261506
OMG,-0.002984201845186876,-0.09863494894088215,-0.04996879707510168,0.017610363271185918,-0.017473367159352278,-0.014734236116192475,-0.05360407430370103,-0.058109490103816885,-0.1296453554406313,-0.019511253727775613,-0.0330052813831605,-0.0542054475677693,-0.06448380352810554,-0.010540723339951607,-0.01912658675938463,0.06206238836424719,0.026928525287662954,-0.16235726968439476,0.014781128021009397,0.08051767740253461,-0.09898480571026712,-0.05940540866750232,-0.0528042401704341,0.0015393211042455195,-0.020640817306506166,0.11348206630790712
CXCL3,-0.0529956604703765,-0.0172075826550613,-0.039544701010113155,0.016651729026442116,0.05791280327296366,0.06542054808952855,0.07262640462023794,,0.049989820340644246,0.07084495553651445,-0.030416690289554304,-0.003018247079042459,-0.0024905732419291822,0.01865936350540791,-0.00798727978405159,0.07421245935147767,,,0.0733122837571173,0.12514407626754953,0.00966174850384676,0.09036414936017417,-0.03601379871563829,0.0351901149044217,0.10147143215894974,
CXCL10,0.09260896367139981,-0.023297374904035977,0.08474703906976636,0.001454322187472637,,0.0018832400679529126,0.001018968253008163,0.1034666845832127,0.4317808491402429,0.03673344473559334,0.012191974238307715,-0.0013864403583215695,0.036526672817307176,0.03404263517649791,0.03452672346692377,-0.02541772360619565,0.03870205724420315,0.036578938189900524,0.08939209494001461,0.026127180146202886,-0.07959231447948766,-0.0002540667258110857,,0.1632840089919379,0.016698049497897785,
RSPO3,,,0.014016869690565667,,-0.0646093142489494,-0.05131117935824187,-0.03577830338778538,-0.032481738647991414,-0.14379908982529327,-0.04027345419835529,0.02852030171023125,-0.03515505463015531,,-0.02497206048418353,,,,,0.00879667053061773,0.08455806308087437,,0.03000600236621903,-0.05012162150911167,0.021260210826788563,-0.03886055853458876,0.025882852826281385
CORT,0.0066465325877971765,0.02146773442034032,0.05264296192813339,0.00143167166348664,0.02696764823026848,0.004508051704920802,-0.031260272176591414,0.014190451200057054,-0.09170399439148753,0.054381791661795506,-0.01980919473183233,-0.01203284617863558,,-0.03410694493094056,,,,,0.025256575787442153,0.02324541677368787,,-0.030030013781550298,-0.004728675256526943,,,0.07799896013117971
NCAN,-0.06784872605880254,-0.07297566666496226,0.08060333786625844,0.061437781040652256,0.03798437048816975,-0.03389465436268689,-0.02919216853346026,0.12309910210323427,0.16119667836957965,0.02156408877267736,-0.03580764470413735,-0.05924838502396639,,0.03937217604311169,0.01614888238244607,0.015050878018927518,0.02473371123599974,-0.027639793924274122,-0.015319900960813749,0.005422218976382376,0.13603404887657375,-0.128566359278089,0.09064202698974493,-0.07263815018905904,-0.055191653347007784,0.010419638954736236
PRG4,,0.030974070407354323,0.10144440846812,,0.05294316914447923,0.008053083439087314,0.005094967522953947,,0.097504887882552,0.0009102677610440743,,,,0.03854777051674786,,,,,0.07432149283661948,0.021416260675919636,,0.17177431352596031,,0.09932874444353329,0.05243762056522005,
ZG16B,,,0.051143384789363124,0.009819534325227867,,-0.009844366159894027,,,0.020191576897409292,-0.03924345815690727,,,0.05727178688035392,,,,,0.021693189775049356,,,,,,0.03177527038251951,0.07324199225613505,
TGM2,0.09364839813122663,0.11105125719011653,0.19553005573423002,-0.011504343506443295,0.07098821650386374,0.04434643096111239,0.16097689328546208,0.06783758346290271,0.2980308132602716,0.022562103733359685,-0.015832410270969332,0.009394603160240423,-0.04326292388427631,0.1151754014787732,0.18756888082522968,0.032882121944817794,0.20772736103869818,0.13652290943821424,0.12186543873094463,0.20402706889846414,0.11142301375406254,0.19780347393144124,0.1383518823799037,0.21021376290914806,0.09277820305308011,0.050470414065471494
VEGFC,0.11302746845064604,0.003678463663617139,0.1197203191805831,0.03471828091013018,0.0005747717144061087,0.0308029660574474,0.10771263199372326,0.057354460232393746,0.04956254914025299,0.0023929984185956997,0.0009331042497966298,-0.021032139829759055,-0.02699160024478979,0.08892136822828405,0.05006464790036,-0.013524767117332076,0.15624459691502765,0.06606420767399988,-0.010447926264628165,0.056957285694810095,0.06739011756445136,0.05408001998508968,,0.19166157963114336,0.05669413530502273,
WNT6,,-0.006405554329066571,-0.011421340470194408,-0.04941849536471397,-0.0008836925536255777,-0.019304340049666056,0.012381229000745076,0.05692620058076717,0.06473283600411273,0.01121708840053058,,,-0.08587993546655677,0.06848441201362564,,0.027192755475263928,,0.02220066541216574,0.05111832611876647,0.10576455114120953,,-0.01134653331352077,,0.05427262568325573,0.07700862631062545,
NRG4,,0.03592802877349581,0.0009597229004481518,,0.004203623118524701,0.008957670912532986,0.07262208802012703,0.011938517863349199,0.05946604642507515,-0.01870432617255731,0.004538718705158453,-0.08798555526859508,,0.022684044812454937,,,0.09608304188458881,,,,0.028212090221067337,0.0006559280482240204,,-0.034981188600894074,-0.0846657285442119,
PMCH,,,0.07264080740791035,,,-0.017707018537928956,,,,-0.008124749311826317,,,,,,,,,0.012827839355645349,0.040220626467127915,,-0.0008738733470900404,,0.1164886770195192,0.10574094356074693,
COL9A1,0.05218407583025624,0.022401392237661404,0.18930232962550325,0.029336222730889656,-0.012923888626503807,-0.041223338222515525,0.023192541382576388,0.29548439697392226,0.16918138928035895,0.00618080901989474,0.014397443630753558,0.03593798050204217,,0.048694359212157645,0.1432088355377281,0.01492053497462846,0.0951693270062186,0.19863771565717223,-0.0010656849100573967,0.05879323534294697,0.10283741009599713,-0.06879845090911979,,0.09138226451593907,0.09627457867535075,0.1236677412371729
GDF11,0.08815636926558325,0.05793170794087218,0.03774101120872827,0.03843185882726251,0.01861103975503098,-0.0628338311305722,-0.01061904630563682,0.22333229532318655,0.3096637456412634,0.05175909905025963,0.011695879301700438,0.0016554578713037368,-0.0013502240582961213,0.07644428020454894,0.02068731858972991,-0.05048576205089614,-0.017181375536164004,0.012325679748007105,0.07124403383063928,0.016053166352162678,0.07649191679082816,0.020603717205050883,0.12161268637886774,0.20834570777089445,0.01954519980346082,0.14625205387982926
RAET1E,,,,,,,,,,,,,,,,,,,,,,,,0.07932240911017029,,
IL24,,,,,,,,,,,,,0.006005782052822882,,,,,,0.0011607156293362017,0.13322750273846398,,,,,0.017163265013478875,
SORBS1,-0.0012757120549185981,-0.03188023245282994,0.17931368269421058,-0.04131901624708792,0.09620198002785697,-0.003595953971330128,0.09263212227182771,-0.05667045613557981,0.015581959514867025,-0.05288769004508662,0.02611517019372919,0.09723428016782704,0.028543009200927227,0.07661915260496599,0.017734991382684417,-0.0022161814716005423,0.0032776945732817487,0.07540003320691674,-0.007879368743306133,-0.03341204887584945,-0.08028695218590562,0.10315179317786388,-0.057467576443014035,-0.08493890452666626,-0.018392492054790432,-0.017584996690234472
DLL1,-0.02281005236609833,0.004894077234798314,0.11467360435487839,-0.03989118245960869,0.0626815434685829,0.04469462849067864,0.006750065692568049,0.21918229315860288,0.1867755943699453,-0.006255829857149313,-0.02243054278038043,0.025134588610773636,-0.0800992999582614,0.0407897444207494,0.07310138785710849,0.02052439353157792,0.09916474305005858,0.09637764501691297,0.0156751270848345,0.05676883482347377,-0.007128647350336251,-0.044262278261456976,0.13182879108806764,0.1513795115453165,0.06485638879977033,0.10141147002687538
TLN1,0.07710090980161294,0.03406418321276819,0.21719236531932104,0.04924355245159405,0.11285513284126153,0.0009528255902051599,0.10546576955523092,0.21689618214704381,0.375774520140366,0.09694738100576158,-0.004420057304346244,0.0826096940416154,0.061933977722545046,0.03328024783610354,0.24124734974427212,0.053362347774498234,0.14067421739816507,0.10733150034604451,0.12077346961789898,0.06272655571241169,0.06478494025121766,0.10865780863191449,0.027791819928404887,0.18628317864222255,0.18161269231579616,0.07122804700089282
COL2A1,-0.0010424954345876088,0.015300590582375177,0.049395915497880465,,,,0.05953353955312637,0.10109085556639688,0.05621857750438299,,,,,-0.005074497940568126,,,,,0.027505202712426863,0.09433616737475842,,0.0010677229699411306,,0.03411804250743529,-0.0001434841212580036,
SHH,,,,,,-0.007855468112192886,0.11932610322303716,0.028568459746906635,0.02664390862660064,0.07900387246266055,-0.016300498027217253,,,-0.059389738736833404,-0.024263583271004766,0.08136563541858603,,,-0.008169645871598788,0.02626965755130133,0.10797753009520347,0.022388021135298843,,-0.02450050109343939,0.06138378859932526,
PON2,0.032973558366054104,-0.009275859437277302,0.06938701438451754,-0.042609916074971534,0.020635772945602836,-0.10482090100034912,0.008112317563116377,-0.035665372218726184,0.38947271034277653,-0.03127353876438798,0.006888395980589904,0.0629405972270612,0.04131743084332902,0.04094940281268208,0.13109283930911295,0.052147266918723956,0.11194877099035726,-0.0326073120321754,0.047887541389718465,0.05645461741649969,0.10466224575444727,0.0013947733763888315,-0.04745521502816823,-0.10514653783247375,-0.026236237664958025,-0.002668579836647984
ICAM5,,-0.08558803255740488,-0.019855736226698225,0.02973558978069317,0.06985025653432726,-0.018852478189700816,-0.03588752334915469,-0.09119145167882657,-0.13963456386171094,-0.056271844096457115,-0.04300636812354218,-0.01201479568808019,0.029480943144507065,-0.005145133492822608,,,,,-0.01810339942763277,-0.01629569699824243,,-0.06804692492204409,-0.05434516626821164,0.03901529424203215,0.010391199432470069,0.10846238695252532
HPX,0.01808684628820228,0.04594911573268768,0.03263675416037676,,0.044047733246598,-0.01747872055162635,0.02687104884667829,0.06387946929402147,0.11384021441677335,0.018423975563234947,0.022072886257868213,,-0.04997753630561368,0.1318236094036333,-0.003480737124171378,0.06405459645133187,0.010725897460982403,0.06318319577740703,0.08866236162208382,0.059851267776634874,0.05457971793020337,0.009446703504338117,,0.06190384378633364,-0.0084880861486276,
SFRP2,,0.0066760220415134205,0.08973065064267516,,,-0.010176157819973414,,0.0066443058919582075,0.007679614443821846,0.0483050029454912,0.03416912848906898,0.13122223742166758,0.10448211788411157,0.010948896406788715,0.028395243313712647,-0.00507868071147432,,-0.005753905069597416,0.10067351088053428,0.08452300719997027,0.014201036268219723,0.11088271069598284,0.027093615730449862,0.2366132259008084,0.0970115626037095,0.0872114609813935
CFC1,,,,,,,,-0.036093221085057546,,-0.04130512603623056,,-0.005612842346368968,,,,,,,,,,,,,-0.004417805859057015,
CD70,,,0.07984648663857431,,,-0.0009992004307759709,,,,-0.02548698461915176,,,0.018403310906930134,,,,-0.0029646478884874003,,0.07569222481196479,0.0772850784140411,,0.03939443798154186,,0.07683506593365305,0.07420815435167752,
HP,-0.0037419270798698377,0.017924479738384014,-0.006014562823889456,,-0.021552131145991003,0.0499257745228612,0.08268694982858103,,0.21552631860644547,0.09456060396318555,-0.046382968376112554,0.0960996746022928,,0.05000843563491025,-0.031985007768173576,-0.08531898715282063,0.13131260553996515,0.21379459953809388,0.1919409264977465,0.10949840021363985,0.09796284560166066,0.03909025621127192,,0.1116135970475259,0.10992929551130179,
CXCL2,0.025899881804846543,0.007064093823836663,0.002308767121167344,0.020418801162162683,0.09056747302312082,0.010602191632285367,0.08380050391778204,0.07315409677205816,0.19004305155442344,0.05906534522065386,-0.0007786635675426879,0.005791003704852982,0.03611935276012954,0.077448925752332,-0.034549354278529544,-0.10750397042339586,0.0014948827242164662,,0.06068624283081627,0.16423431457967502,0.01780211738712767,0.11340583788983184,-0.034468576356383306,0.06810220826009203,0.13560944193228874,-0.0907179071666702
NPPB,,,-0.023252168243837117,,-0.04682961340399766,0.04210970412201945,,,,-0.025987642646302767,,,,-0.0454537598193166,,,,,0.02576546750979128,0.04769042545765484,,0.0005593006577186286,,-0.03908693573855769,,
CCK,-3.010046490365824e-05,-0.07738119665028717,-0.050930475466278706,-0.07065855239768412,0.02483751228533597,-0.04272927969324112,-0.0621697091921571,-0.28232558017069503,-0.3803554243307687,-0.07950194250466845,-0.032364706112156985,-0.12708705470496895,,-0.014025493170570925,-0.005974110211870121,,,0.04583200960687453,-0.05685820148004993,-0.010246368567642114,-0.018269929250261538,-0.052258344652567006,-0.029216275997092006,0.11214697516036248,-0.13088760913244918,0.11170196479455718
SEMA6A,0.004975155089047566,-0.017351540050767045,-0.029772196119139997,0.020110912574443522,-0.004393599480205986,0.00621818877589464,0.009940604257094672,0.20565714235565516,0.2957357494320747,0.03711715824488885,-0.019330138212440277,0.010606899656009824,0.032405588746806054,0.039238339336543346,-0.0007944141619080281,0.03544812046662506,-0.028877419463045298,-0.04047080605763693,-0.05890572096843173,-0.026917048972567678,0.027736972835158403,-0.036701367635916166,0.11002766343636097,-0.08247439290111343,0.038135325023191176,0.006169725063899576
IRAK4,0.003916098321048387,0.025743695826083685,0.13465865777685898,0.042387879705424625,0.03214499356125916,0.028946816765326934,0.08524953954184687,0.22787591428089324,0.26289505150192216,-0.0010810469637254141,0.015450894676205489,0.04794219963400311,-0.01143460152520121,0.08115358553249251,0.019147975663777142,0.03400422057516398,-0.024334078477324734,0.12220731815632105,0.032264301486959225,0.054181200816527574,0.0972970827994077,0.03402773654637108,-0.032699699378794335,0.17847424131983836,0.08363248925289923,-0.007540171945479057
GSTP1,0.06789998100414744,0.014529986007429278,-0.01844374906943468,-0.017887356859332605,0.07246960888930822,-0.07185082149653327,0.06469307137659866,0.23631677898991957,0.3610574452212122,-0.05668546740379341,0.022647644761945872,0.14331622263063623,0.21861493896454778,0.06304679845678683,-0.11506735806500668,-0.08826812398584329,0.12589554842687306,-0.14327002174892794,-0.030059651555965385,0.020943026056611632,-0.07048743987788612,-0.035669051325797244,0.23031247132355548,-0.022784419698287022,0.01158312069611114,0.0920195348225099
VCAM1,-0.030536646027244974,0.026266749653636644,0.0919268200022057,0.004726279398399397,0.03404974635293874,-0.06916606517117116,0.1129862853474396,0.1098117047223424,0.46492149149243844,-0.01006306941416747,0.008768336888321246,0.03018609439599041,-0.028395241339863063,0.0033693898510850214,0.051184040281474615,0.05935048167238744,0.17871282121979432,0.042971716874963116,-0.017469874275962166,0.0959243133012803,0.05160275994583704,0.08719810949898393,0.06342284701837043,0.1882622941699488,0.14234208501933626,0.1569390885183493
NXPH3,-0.043232253985934145,0.030989594172983356,0.05395527757032123,-0.021925891090435173,0.05943153880072325,0.0383063342204228,-0.0036669921338885704,0.1954185831386958,0.10996557081014516,-0.026779038277626198,-0.010070493300291097,-0.038000819695570974,-0.057897740627901706,0.05211719935507967,0.12271649535799405,0.132687287735633,0.11734039019538847,0.09178181018360507,0.03278223363996022,0.023437979008704445,0.08482013057646565,0.003996398704490676,0.027858936075574242,0.07957023394027853,-0.011033515948906187,0.036256700316641854
MTMR4,0.039865018544262984,-0.09873506023810724,0.024189510220766465,0.02969992945903496,0.0634964521948648,0.04733083433009036,0.03645006528164157,0.05203030672910757,0.08037310574228536,0.027159630980604334,-0.02778005362856059,0.00024332032499504977,-0.04253734021664815,-0.020275274913574517,0.03783428604846069,-0.032257258367572435,-0.09105280327991716,0.11102226284360821,-0.018931206542685857,0.042779078073385,0.06541963706627886,-0.023674283893073623,0.0505528158967851,0.06255209647193578,0.06558252841656761,0.2053975762850611
LAMC2,,-0.08143390016889494,0.05338349527353186,,,-0.034287028263034376,,-0.008336767363438347,,-0.02518105392001134,,,-0.030714263055138833,,,,-0.009363190749888742,,0.026971559639372443,0.07240642443026499,0.050759469799920284,-0.022124869961177476,,0.03143645162428003,-0.08577775173033265,
IL10,0.09702571592681429,-0.011876058027201852,0.04619485436998814,0.01897358558190701,0.04879767218296751,0.013126813032079585,0.05744040377987517,,0.048580442476683916,0.06838375650879627,,0.11845746284574006,-0.04410928472566202,0.06884328239044353,-0.04095023335631576,0.07342978490727839,-0.02427406205541811,0.10753464620892042,-0.01925199245460627,0.014843481427386833,0.04072139031835187,-0.007060110377460252,,0.16389025972786594,0.08730490343276957,
SEMA4D,0.03215357725812429,0.03837427486768217,0.07424728547778835,0.0547432666622057,0.030315729249050002,0.04401242681535767,-0.004501898751150668,0.04323764777025676,-0.170989102546687,-0.024265969677386687,-0.026727511246207855,0.02887147565807216,0.04640465354819986,0.02199957853721266,-0.010609642735465483,0.1538375012776069,0.05699544490918849,-0.11125423556074117,0.00377258047387008,0.052263139105501226,-0.11135910849938511,-0.10479412258013972,0.031013628817103032,0.16376832593031915,0.046033731885017824,0.027133775686219455
TRH,-0.07741734702965018,0.04775930613910449,0.0513200691385759,,0.059035487819549266,0.029331435923851405,-0.017479415668293467,0.11508375686202338,0.10575504200093151,0.058698646750186934,,-0.027076789264002265,,0.13097869828664038,0.04214405327046221,-0.02399291795382459,,,-0.001984052402093793,0.03488841789829891,0.17825374938646282,0.050477561538588206,0.0764958752800692,0.015822688881813735,0.03381123378994648,
SEMA6D,-0.0012295819615522816,0.026709508421616974,0.02920627109850161,-0.015699986724167593,-0.029893274037202343,-0.012277947256508161,0.021014233008980993,0.17243154249312567,0.22720616899698098,0.024750664284797948,0.0033221145219031367,0.0072171483513652985,0.08327103578530537,0.09693170506792027,0.17224351903786475,0.057420764852602585,-0.016987280785014044,0.022950630427015166,0.05154042551664592,0.024967007095245727,-0.008175193110268103,-0.07566367529009944,0.04715306056662048,-0.11764852603479092,0.051196589361585464,0.056456581353340154
CEL,,,,,0.014515694073162893,,0.035516304674845706,,,,,,,,,0.11041611704498341,0.004952194994920295,0.0609597750976195,0.025424974244129286,-0.0173395147022033,0.052788592455615686,0.021161113065493495,,0.08770717186470144,0.009354136372419533,
PDCD1LG2,0.0739169914465889,0.10347673075790907,0.0897273998630762,0.009976483648067327,0.026899763325686447,0.015179336361439403,-0.029769653706277016,0.047020961752375724,0.11234986333426134,0.017909980797396946,0.02641366293311913,-0.002493705985918441,0.04020601535047863,0.02481817020540334,0.03764425186192712,-0.009268789374128188,0.01746854071719846,0.20774030806424323,0.05379007974742001,0.08276782515478529,0.020742074231770744,-0.017886784977642685,,0.22249807664347918,0.062024712728373815,
SPINT1,0.07921992564206656,0.07409220992836635,0.049775014940011054,0.02316343235751014,0.06062513630397216,0.047858250439559276,0.017361523892949413,0.03926764755728191,0.19447212001403477,-0.005193980089207411,-0.016512943232339043,0.04007273853505418,0.05210632789441487,-0.0032285514149413314,0.11518357917504905,0.12180396980235203,0.010747401909795305,0.020066173634083136,-0.0034505549384887682,0.056487546425384956,0.027674804932726966,0.001674774148967509,,0.127510389492176,0.018625022948927858,
CTHRC1,0.018515227595790162,0.05847185915757413,0.30420144388468473,-0.041836202859944986,0.07438253337322986,0.009482378126824651,0.06538935004429028,0.3084900059985347,0.28153906989929534,0.07453512535010665,0.03160507414690177,0.012688915672945231,-0.17001325477854318,0.10629029472314001,0.1522970764235012,0.038915000342918366,0.15504711126372123,0.26963259967917264,0.1640242504025712,0.14695878188534445,0.08998370140697941,0.20958197259317324,,0.3355272277828853,0.13750489533776014,-0.006738930271682011
PODXL,0.02088628418682766,-0.022420828109538497,0.3342584057186502,0.07955863157171998,0.07437310155376571,0.10044492633427707,0.1236029796139247,0.25510866725808534,0.4874553544907277,0.11330685768509256,0.00069415162936466,-0.011789914694319349,-0.0360705220557837,0.1049412680610491,0.2247728259319824,0.16601195234250474,0.08852976675588511,0.20540532601189262,0.0795228497971638,0.09262110259928609,0.22277019337616688,0.10705199835376203,0.07412786574486076,0.20554013632284432,0.12597777078014766,0.017796731370867867
JAM3,0.03131537962927288,0.0677124932318488,0.07736049677593954,0.0360073631861846,0.09798497285330346,-0.048904593363957125,0.06214909644530066,0.11445755464032427,0.31876305321262227,0.03573939925361075,-0.022052444620462294,0.07971958239344194,-0.023231484237994884,0.04940204353411619,-0.07763614943289929,0.09245543358988881,-0.002705906616474006,-0.15207096710908075,-0.007308328778646269,0.10336338543501623,-0.0877411790064581,0.11239059956619903,0.0648960523761684,0.11421957234421688,0.1553513210879927,0.06133836152653078
TGFB2,-0.04213679685684145,0.020136466124512878,0.09500086969977262,0.02564521439898751,0.07555137586380206,0.0041711162409137584,0.04071515134851764,-0.011058114203806252,0.5068826552433269,0.024321447097131216,-0.004665263686496382,0.06948695913720568,0.027261957620435713,-0.026313305282097455,0.087481680170132,-0.009891795315171936,-0.036319131899832637,0.1901638911614008,0.02230001936647373,0.058105986690553536,0.08659145645564154,-0.03208017866037566,0.17045693345076363,-0.05425054872824961,-0.01117160793995196,0.08665031997517472
COL18A1,0.009950258419477312,0.12966864533697953,0.37248874987878255,0.04065878172759772,0.06148354146226507,0.05913828804329497,0.08239024245879874,0.252437919576673,0.4193847766225851,0.09921317592273528,0.11703929775370292,0.14582215752039387,0.051099194904134004,0.19798717834110738,0.3677195277811624,0.22486198950189784,0.16042372807834168,0.22281384953825076,0.17867565279484288,0.17560458103120596,0.20421266155383275,0.2576318422349861,0.024812875932203344,0.35677373826873454,0.164441636260299,0.14683499330237063
NODAL,-0.006849206498677184,,0.09918371358678611,0.01561939600335883,,0.02564839547179078,0.01708983053515758,0.12069531393005341,0.2755365926514239,,,,,0.09201740097549466,0.20233838095237594,0.20662138807347277,0.09637772420855231,0.22764610420382628,0.05121087769967318,0.049763609409550526,0.1068124258254152,0.052953414309938746,,0.046325403706830894,-0.031475807167957406,
INHBB,-0.03198131037842804,0.028758451726804572,-0.0028213174798114387,0.03560404908653268,0.06567679639638714,-0.011232330139732072,0.0015786116583002031,0.0034793640850243083,0.2509768911181116,0.0066671167731152,0.02927751347360064,0.0042011390119781125,-0.028367939158093474,0.07753751943596415,-0.06372324861977526,-0.08916232159413065,0.11282451695937122,0.19723255411952903,0.0120042518953133,0.12603708967330365,0.0695298552135895,0.05404623203723902,0.008229508688525424,-0.029088661104360935,0.06545917424384738,0.17270672879282356
LCN1,,,0.07622332657154014,,,,,,0.02782656631528579,,,,,,0.05283468589370281,,,,0.03553199668866376,0.005206460328283047,,,,0.08206243821193714,0.06479742055563979,
ARF4,0.028406663085782807,-0.02129786024398327,0.1325974615846691,0.0038789795583094007,0.05379348094076974,0.015625026950385354,-0.014731184331200181,0.0781667634328522,0.28492227908407336,0.04508186390398518,-0.039788162970473266,0.03146477449907454,0.08279572348028923,0.06286591795262869,0.15748989877828556,0.17159981032976868,-0.014236486681887994,0.20785442726428366,0.04699466349539753,0.05266607060915785,0.047221662645781516,-0.05849033679601775,-0.017217501172480453,0.15284642030667306,0.05599643983593805,-0.0012145594034082446
CXCL14,-0.09716796140609164,0.077853748032607,0.07302343781851449,0.014507858355252397,0.009005141274254154,0.023950482893827063,0.017451029960835508,-0.17972371843402388,0.042701854707885546,0.05027516236771398,0.02008400142611337,-0.021156705650324577,0.04860475617233126,0.05544359259361085,0.08976954874430187,-0.01665995965625622,0.03479488051824132,0.10683551394147586,0.03926002511307301,0.008518026565864494,0.15706245162231303,-0.013896922334340776,-0.07354893954095315,-0.060527281306518466,0.0674312291401544,0.08766352953012999
LIF,0.020817632416933473,0.07293021404722523,0.126565258977495,0.04719336615036221,0.06205520555801573,0.029466727635205667,0.14728549555986586,0.12348005058029198,0.23898216720695795,0.12065505993261073,-0.017279632986271668,0.04428195706566638,0.013057652065047365,0.029500692657712848,0.0770876069919866,0.044378877605091696,-0.02453633199838451,0.1919678313585658,-0.03786290747125879,0.09545917778717748,0.05089234341905726,0.07809112208288668,0.05978361884111869,-0.013132579029368497,0.10774343443880403,
IL17B,,-0.03284209870622607,,,0.009491010447849066,,,,0.15279117906776798,,,,-0.0993854141009085,,0.12481778605990852,0.10704727701309605,0.08086822091538816,,0.015025580333715234,0.03300825650846086,,0.014387239964286983,,0.11353504144123856,0.08562408669435843,
MMP1,,,0.049788666153314697,,0.03418373316439562,,0.06867814416673491,,,,,,-0.011433069564626403,,0.20794677460703187,0.12049630194169694,,,0.04471820381628594,0.07979935976733334,,0.029965607778757612,,0.28028054366476873,0.0778444939601923,
MATN1,,0.002189886480916665,0.034001028949859124,,0.040851680580739846,,,0.02436738878365776,0.05997906339388354,0.018444857124703815,,,-0.019701305003424666,0.05427730122679457,,,-0.047235887752209,,0.0005278708282366261,0.01688557106813586,-0.028925427572908,0.05758831109512739,,0.01490992254856624,0.046484933753706846,
ADAM28,-0.05983621718671594,0.00010416128453405962,0.06628576559846813,-0.012850530408595484,0.06821705595265205,0.04048560154345832,0.032386444044357525,0.06792565636615852,0.26436745957248997,-0.005219397050357484,-0.021861649227171057,0.07406423200590229,0.0031775033849906673,0.10560079146085063,-0.019081031799027,0.015424862216622438,-0.015339110632905302,0.06442036765804161,-0.01089659302103947,0.012376799048568662,0.040198340585949816,0.04655424551403989,0.19331115446964064,0.18604086074547455,0.038875023797575084,0.003973779346128575
TCN2,0.051620941370618734,0.0802199356250274,0.29411217230924114,-0.028043507770634163,0.06926288933985833,-0.010387882066383077,0.004817014889729663,0.06632138982716426,0.40897910449438507,0.01550880577178636,0.06393681420781344,0.07534786334326393,0.2132937712558121,0.09481663569128122,0.06957686803039694,0.11202633375265433,0.1787399474133735,0.20873889982928615,0.1548149085375364,0.11304810121293568,0.20556989020998603,0.08131244296102247,6.161384371052616e-05,0.18676232294946354,0.14505246239789496,-0.011117500633330356
THPO,,,-0.0068570573200306024,,,0.015386085112060762,,-0.00800779650000268,0.06844689870138737,0.0046105393650419406,-0.025494384609468523,-0.011232914214778754,,0.031710552775951056,,0.028415465923968434,-0.007989485041720652,0.14129758265477194,,,,-0.028858350520996282,,0.016707729454403807,0.025994837306170318,
CUBN,0.05536272611271398,0.06214484954020448,0.15698895671237773,0.02991304860746114,-0.035174414760718566,0.019340776651029557,0.026924135140018082,0.05193724663139207,0.2084371228640989,0.01240886149531203,0.03851509773549583,0.05054666887005971,-0.024902961913935845,0.04823477117971173,0.13966602795184835,-0.0361047141083339,-0.014511770733543431,0.19961871240164453,0.041063888929749416,0.046999126917204356,0.0625035652066291,0.08581113382192436,0.12413343451523001,0.16011098101564022,0.04217396539017552,
TIMP3,-0.013971055075236879,0.07681646876735138,0.03269724948691357,0.027652612998783434,0.04477664742258064,0.015273308004392352,0.03723101941278401,0.014584428137296199,0.25247836858466544,-0.018715887860684736,0.0932912216350561,0.014050628959738885,-0.030267904363787523,0.08057913127369298,0.12839602444967188,0.11628094946932377,0.020237557317339734,0.0035722267946468405,0.03999715154168707,0.04957659981879286,0.15470324620717738,0.18311755605685798,-0.009108361428167781,0.2919849359429444,0.18875158446277196,0.06369431158635612
PIGF,0.02815932137685368,-0.003930631368422079,0.0352993830907464,0.04489732683198022,0.03624910814930424,0.0017538159990785087,-0.028282520218108922,0.08303049644620626,0.22462427948810304,-0.004370020641105066,-0.01133182866617347,0.00647076515529107,-0.012012705896996047,0.01643129355229629,0.04694335818612381,-0.013052687397793155,0.14895716313962065,0.11688625849050209,0.05670119427814903,0.06841484202167639,0.0702816865455995,-0.0009922775234073335,0.20079387285314987,0.0756047320653262,0.014640306131593612,0.1034089032342674
CRH,,,0.04783030670361864,-0.03741210588892849,,-0.024509961784937723,-0.02132538624621854,-0.040258523997947424,-0.13128669580960287,-0.010251562677047339,-0.04372356095432603,-0.021443827307186535,,0.02224201281862443,,,,,-0.008439575032828113,0.07649735012039471,-0.004717569941716593,-0.012555118098006897,-0.011312546201561757,0.013436671332858776,-0.0268230718598903,0.09948883124168348
BDNF,,-0.008496357661510662,0.02833669475104041,0.026296862017235252,0.03390175304869572,0.04809248936113602,0.08023939676374987,-0.08176398723628128,-0.27115287704202035,0.018526074598646143,-0.003644920747527247,-0.02792330442970576,0.023663944424662343,0.052075962070395415,0.0031895316179626006,0.01585597592576166,,,0.07206419450528395,0.04451609308838473,0.1681975211062763,-0.00564371297746464,-0.08006014041065582,0.09236602456233238,0.15495323358079333,0.02141550411783178
CCL5,-0.006171511302927549,0.023503111829155404,0.18685230757378524,-0.007176402243013314,,-0.007788642650149214,0.05879633647981037,0.041723256957114686,0.22377954873324513,0.06851352356539651,0.048376941514470286,0.02545043680697736,0.05755892560438338,0.06521378449772357,0.05577168100280178,0.09390478946589113,0.00848917309528543,0.09259222651611289,0.006140736270150959,0.04256758671624376,0.039054281314339495,0.08442483450174391,0.03798094496020258,0.2948026653626535,0.08561968679211415,
GAD1,0.028843378260210377,-0.043836840405367165,0.037472278933065414,-0.0034590111955988224,0.027643344947987966,-0.02056313833081937,-0.08355122961003127,-0.20829652711494245,-0.20780099279679612,-0.07364444910229127,-0.05064474300288441,-0.13791121016343397,0.03859261233846897,-0.01106412839852308,0.07362411752844406,0.04734894961564922,-0.028105359576144982,0.15480631898485447,-0.009832477372098107,0.036423469562724145,0.0656980432372057,-0.06964442913150957,0.0913605020537069,0.03265899366069709,0.012204140120643537,0.12266817003543125
COL14A1,0.003248808680294017,0.06221060633424311,0.17078467642822434,0.014396088424222424,0.064503538109998,0.015107068818284636,0.023258229448557727,0.07323902270643999,0.13940173128514471,-0.022637038442725757,0.03808383515519027,0.06383745850075326,0.15668256913207837,-0.0033531988522169922,0.06776711248511859,0.09542171057511277,0.08195039901347359,0.13608697547027387,0.05523617812643252,0.12261069366404558,0.08016022113305515,0.13950562461509264,,0.342356577041407,0.038686567815235474,
HLA-A,0.1065899521935562,0.09423889564234637,0.12548824385778812,0.019586063925601725,0.06512363235313319,0.07061332834535865,0.11213896470738026,0.17285703885230397,0.5046991391567678,0.03676083048720262,0.04749115047322418,0.21496068328956242,0.1668206178433717,0.09196943964186859,0.10501228497913134,0.1102194019406934,0.20723752424834502,0.2105962639394158,0.07449324323512109,0.10336456239465734,0.20500791211849798,0.09025203107850617,0.13055111918357634,0.19663089832180256,0.08350086827515685,0.10418010180203537
CD5L,-0.000675133789432933,,0.025247811347181154,-0.015912617308047203,,,,,,,,0.011374532358224353,,,,,,0.033051692045818884,,,,,,,,
FGF18,,,0.0054312844829211655,,0.024224378041702303,-0.01144972753838514,0.017780234982744024,0.0019061252035707083,,0.05926128014594836,,,0.010456297181573856,,,,,,0.015656904163052307,-0.013416743875869153,,-0.05536613675586501,,-0.013314922144766173,-0.0014176844489731976,
ADM,0.0405988448841822,0.07156252198319854,-0.10657620269274294,0.01635900040257154,-0.02677743512398658,0.04056875661746378,0.053577140413992766,0.1476188851439899,0.33508801377639397,0.06140291816935355,-0.008713407639516233,0.10121378865393665,-0.10832137160839087,0.012250118295192552,0.1338773082270653,-0.00939459965760904,-0.03633804953968943,0.18404722064811677,-0.03269577337766803,-0.004321779065293679,0.06870469944848051,0.0021772471808809524,0.03195336183373101,0.04043855663775773,0.14296894304410887,0.1809863760186305
CCL15,,,0.17234941811670387,,,,,,,,0.012011813409894885,,,,0.0743521308886958,,,,,,,,,0.05824894853594875,,
GNAI2,0.04495787785251804,0.0708889303912738,0.231405019513306,0.027574894588909937,0.0277760367165884,0.06807898298526717,0.06720362271986006,0.21544796872859984,0.4210759739663977,0.07921543743286326,0.029912930328015567,0.18349206095712076,0.09734794114134926,0.04011516331706128,0.18271577323624363,-0.01880447153717716,0.034745554280704714,0.11299238182019011,-0.016706400381251447,0.011110027245928137,-0.012260038557474812,0.16583677108632594,-0.04502354270797208,0.17346723426721988,0.11545627987438409,0.03723469142699778
HDC,,,,,,,,,0.18009421751650834,,0.00498073401802017,,,,,,-0.0005999852781726077,,,,,,,0.004949808631653853,0.016723924398171764,
COL11A1,-0.05236656057479569,,0.1237100385801788,-0.009094194662653923,-0.05024645052036585,0.039940621800623646,0.004776102405009133,0.3316636769102658,-0.05042231095600106,-0.003520788399761164,0.04102575651960133,0.0047921305039128675,0.08778373919434534,0.1212010217057313,0.05849181252025668,-0.00242252953277669,,0.03831967472570408,0.036825581825303086,0.02727140088350018,0.027928767301198497,0.14456227516278625,,0.12354120045031752,0.11253816754238298,0.07940813933919229
NUCB2,0.05479044783276822,0.05458151009709841,-0.030404531833191393,0.027925051283682407,-0.038455413435665185,0.03316264347234157,0.02585509776728017,0.012458667223304153,0.2038114609592248,0.008605397724631847,0.031466528594008676,0.05741011802646085,0.012119953809136875,0.02028286259996264,0.05401627771892439,0.06964270334800675,0.006100126377927562,0.06019241763241329,0.0512991099643184,0.028673834809081488,-0.03246326431742575,-0.016025087944982707,0.09459584877393863,0.14371370169444078,0.07743393391811261,0.09458817295933622
FGF16,,,,,,,,,,,,,,,,,,,,,,,,,-0.0018197625639877113,
CXCL1,,-0.008777979742386836,0.001565802330950884,0.012669013254714727,0.022918502373934745,-0.029854996268664096,0.010534257574842172,,0.046647076704386996,0.007006622066911728,0.046838093149302616,0.06525966916391199,0.05114262596801908,0.04912460155468301,0.038732911860809925,0.020354731811224595,0.10307977218771097,,0.03923290690154177,0.07680871380320335,-0.006628522567765359,0.05649744124311299,-0.0604196240511509,0.12069234601715914,0.13707504867267564,0.041956512111930314
VCAN,0.09127092927721246,0.030204146252508262,-0.0776024689637728,0.029357289283437935,-0.01654107731741525,0.013629633747875252,0.0003449121147906691,0.31840810824945115,0.3135276657731909,0.0575524813192596,-0.023232523432386173,0.07969534266312608,0.04265766701906117,0.030406259216595642,0.043298902538923614,-0.12012757145388706,-0.05783786535819805,-0.19885337187487082,-0.0207617383993456,-0.025185089788922053,-0.03851911363914737,0.06853445704400407,0.14004696521882673,0.01912929865277047,0.09479966608157249,-0.039413020383406425
MMP7,,0.07112148645549657,0.10676572562438257,,,0.01140983526662394,,0.05046818051060044,0.07622660989724256,-0.0300463991746914,-0.06509869604376915,0.05380409699571122,-0.0005787911225349826,0.013527143795463692,0.10224395488699609,-0.04600117218724404,,,0.1511090173292633,0.1416317278574477,,0.07585335781439187,,0.2335407128056597,0.12199038426433359,
PTPN6,0.07875250806741162,0.08588439766664767,0.11007959170741274,0.014779836328493279,0.07986980182954127,-0.0320571429417513,0.058002853221344484,0.09910594853257051,0.31521134914655485,0.014939244455285251,0.04605886300186825,0.14985916662036172,-0.00020178050532006653,0.0886931166632745,0.1210113786692955,-0.05358528996673516,0.13773291008947808,0.14991232422758763,0.121055059286014,0.06763780974939373,0.059586169123377906,0.07334969608067986,0.03338157470613108,0.209466046370539,0.13480752711093522,0.054957267755016935
PTGS2,0.03776212559123418,0.1022543098683265,0.04091356956471103,0.023131534464297113,-0.034720643546189374,0.02158318009911754,0.09239024024976082,0.03887962064860208,-0.25154707921281333,0.019903463122019415,0.033700310001005505,0.10882593453262004,0.0905185056638188,0.08021126120672942,0.10334452696896636,0.06540513057535675,-0.038998385506836424,0.00989940756709234,0.0021403426528433917,0.09871047501206506,0.09164208096596291,0.0847061774142247,-0.12195697631478664,0.0026421259988635135,0.12320019367366246,-0.0277169423826
XCL1,0.009896031380043996,,0.03219571042665035,,,-0.0565137406637593,0.03918132883089457,,,0.07366126381293495,,0.06311377409954824,-0.008715510978157651,,,,,,,,,,,,0.0920720023831898,
CD58,-0.014965572633078541,0.002439724439126338,0.07309554336652602,0.032762515915956386,0.036431706055300946,-0.003542633680262361,0.043520144809064125,0.10664159792021996,0.3461797679351996,-0.009469396183446515,0.011288119586901842,0.056795983837021155,0.020412748230073698,0.07572103307920006,-0.05920060111685754,0.05337298213051061,-0.01716296650338702,0.1683150842227533,0.08260768851124253,0.059465360729111884,0.01786832596863317,0.06129409118038821,0.03661630805845969,0.10727722438379896,0.04208765532140447,0.014615005445352559
TNFSF14,-0.031022313206940585,-0.04461389262697567,0.04480978664007231,0.01348677205428498,0.10220569090549779,-0.0016970649276533837,0.04094344641876874,,0.10451949087027505,0.015689911610497143,-0.011178044564507935,0.023734135104322544,,,-0.007677132120670367,0.007922087775668734,,0.16382942281790314,-0.004146563874275469,0.043596016674686044,0.10086865543906771,-0.051669002617567406,0.018402334116719623,0.05784789334136779,0.05893544595748025,0.0641914943236449
CNTN4,,-0.09501683256703472,0.06092051180796074,0.006161147274428557,0.06698050278118693,0.009799997397952837,-0.037347866503405415,-0.07082741042933509,-0.18740286114467897,-0.032503133471279415,-0.04063937439281058,-0.093580223666784,,0.021390063097280317,0.07761506236258514,,,0.06619141098506325,-0.006800323699526003,0.029949948433609423,-0.05567413299824565,0.035879213923631116,0.05370473065735248,0.13221816404665038,0.005114192034883876,0.038432177690833444
NTF4,,,,,,-0.011204232843170018,,,,,,,,,,,,,,,,,,,,
INSL3,,,0.06396273767880717,,,0.02465820366048851,,,,0.04183263978652473,,,,,,,,,0.01583514892302822,0.014378677739573584,,0.01803836199416447,,0.102518329578076,,
BTLA,,,,,,-0.007228672700702937,-0.03880111897064311,,,,0.053020240194995016,,,,,,,0.0451993427472105,,,,,,0.07145457752132826,,
MFNG,0.010847871176024966,0.05343493624953398,0.20291004077824373,0.022275770201503918,0.08598208151245587,0.013849847003041772,0.002435664035439356,0.23564983685450921,0.2700475445882192,0.03219773867392138,-0.014323489979748529,0.041921819745487116,0.08477042464405093,0.023758357785355365,0.09895807758123044,-0.010693540460822767,0.0921200120291631,0.12278697132026554,0.0624686631307134,0.043938946787111514,0.026082793007682202,0.06878715586969518,0.07955231665376852,0.19776775208005407,0.01585698324279672,0.0916547913515875
ICAM1,-0.06612395056037584,0.13235669192363397,-0.021244587850165295,0.0072308377208966995,0.10597422393277997,0.03675058644299942,0.16174706635379527,0.11024508038217888,0.38292323462051064,0.08155020714342963,0.07525135203742789,0.07451808243259753,0.09401076975522157,0.06965261932023295,0.034385605178933513,-0.07235361845559235,0.02667294447574403,0.15089968742904047,0.06891225811827924,0.09103780069603117,0.05372878555357306,0.0448692841140924,-0.06583276088522697,0.03129516113956868,0.1639299750635875,0.028274689181274158
PROS1,0.025009176335465982,0.0667246592752238,0.17556174586136122,0.0546228392938796,0.10753839710854854,0.019422403448747426,0.15430172212206028,0.15670817275190635,0.42892726645411255,0.03590198432297509,-0.009822065168413241,0.10018315602398045,0.024572672345438064,0.06625339372514694,0.08746088702275977,0.008492869612406806,0.04231424382523874,0.21541354386557557,0.041673591125333316,0.019119884494306644,0.1450368521299104,0.09813565420294623,0.06894784858170616,0.1512516266327982,0.16182066475012707,0.2815055733423174
CLCF1,0.07893896988889447,0.03670296861005449,0.09172824372829351,-0.00021937700267828808,0.05297194150299835,0.019572416259880963,0.12316551565964333,0.06256063047245924,0.13993185082454845,0.05644263612904528,0.005729364270398538,0.08368939509298995,0.11277430489842584,0.07469741616706417,0.061217733591460266,-0.02626398081573012,-0.02230644969854887,0.1787231905617638,0.09716397164633003,0.16078420648106753,0.03519579982787272,-0.035242875181907954,-0.1208242704226417,0.02398133830226563,0.1994732644369771,
PSAP,-0.020374762755021713,-0.03529881468776419,0.19927428606629977,0.05615384337586849,0.09156263896845984,0.082779705638207,-0.005117110676104279,-0.23898829501841207,-0.18404049108140916,-0.019169710790584535,0.05930353184456976,0.10683694036789455,-0.07805477151884513,0.02098682035845697,0.10229833924106722,0.08429597650516871,0.11676104869652959,0.0805992448442298,0.005491326805599522,0.04446073635317895,0.11650368928349286,0.0641072245070931,0.0779366125885337,0.1945328011477972,0.08250615170684578,0.06075591130162254
EFEMP1,-0.0856542805592808,0.09317586232233196,0.12594412705173982,0.09055424958762127,0.01839500323488828,0.006775704758233092,0.1379263799599839,0.13694753480673988,0.411204410071682,0.03783649424900863,0.040479846434044446,0.16842314980176498,0.02343769260743846,0.12454256800561654,0.17236684879326028,0.016776013143237723,0.10442348856869528,0.22598658064102817,0.03807308722109156,0.0754102584003027,0.07096400854716715,0.07449928050663082,0.15342947000269427,0.0847097918667428,0.13866341761628134,0.018383165625007605
C1QTNF1,0.06487678056200624,0.055779912361962614,0.09240414335398396,0.016553524115523414,0.09078341393343217,0.010241176065391797,0.08836179837316942,0.03040982736716263,0.34719724561186255,0.12046348710900272,0.03429649366201161,0.05924840776503134,0.15405748692799678,0.00857374504456907,-0.0013091364935595403,0.10790865918608127,0.07700853075289942,0.14448778865414996,0.03172902387376374,0.1270318906713143,0.19483022015048326,0.10495753715191504,0.1371051361151606,-0.08928984177202229,0.0692616346652635,0.09107555127552863
ALB,-0.01089936153780492,-0.012699007315744462,0.021995485581398976,0.01654822235751397,,-0.0047819722118924435,-0.027618463913264175,0.0421345216856211,-0.046847321419272954,0.02504635432550461,-0.012593838108882444,-0.0017166368325901035,0.011042274490224062,0.013038510659391064,-0.02299596590524573,-0.04420250919736687,0.023683698494006037,0.12840073067360197,-0.04300080839930664,0.05674262566134257,-0.01868182674861902,-0.01863471049943017,0.0058058114730933485,0.04420858054556002,-0.042913999060049994,-0.07808501592466167
CCL13,,,,,,,,,,,,,-0.001899692629054168,,,,,,0.038662190841692125,,,-0.01701252582825687,,,,
EFNA3,0.05666887023276191,0.008374662190237999,-0.0855390697817351,-0.0050963857112487415,0.016304791881564824,0.025341775161986303,-0.0031577024574136322,-0.05765026013420947,-0.3004862765354461,-0.04202207305330484,-0.03108927931263042,-0.04164772598248606,-0.07341168693786533,-0.013475029537289334,0.005103407146551193,-0.09177816937599907,-0.004061308390718262,0.14238535820931425,0.058622199303355556,0.03441022631706708,-0.0036297156058596033,-0.02313611766940946,0.06322704474475889,0.034881666482426306,0.0627271050219097,-0.02317635195315181
DRAXIN,0.08034480332420503,-0.021709821672167465,-0.014313336199763141,0.030349672118095975,0.060794138850967426,0.03126718576601935,0.011612857086312892,0.23371881460322752,0.30418647925044107,0.07148707087224987,-0.02927850494786521,0.05535638348061761,0.005018246990071985,0.09655441997574522,0.05100319642567554,0.04145844675825564,0.019354382448946904,0.12623236600297225,0.0311919821252845,0.05164758034887717,0.07387514367704338,0.043235740267357846,-0.006066410762920291,0.20302537511926208,0.053664933627238995,0.0999517185070874
RAET1L,,,0.06179513937981933,,,,,,,,0.0011026929587483114,,,,,,,,,0.012936514263600828,,0.025911979794224355,,,,
NPTX2,0.020206072697937155,-0.07761577617754896,0.03477978298169425,-0.060557009505188886,0.0785377841188624,0.01807250125013248,-0.05194834997375184,-0.2418265455616673,-0.37367681887092197,-0.07018449738843352,-0.027951036301871283,0.10478907340796532,0.01047288859386133,0.03849361736377211,-0.048597969764195004,-0.007849726670180511,,0.0394269518842319,0.17190882788941803,0.14189910025516325,0.08699010600418326,0.1209372834817494,-0.06192769872614962,0.2193065574724492,0.10627506995344552,0.01209632009135351
FGF11,0.054612856491976676,0.0501764928757419,-0.08262626105481063,0.04011100453241862,0.01628210856498478,0.0013351611915947293,0.014390080040726456,0.175068159909722,0.3191729442130357,0.0382682294777108,-0.0015020197552375477,-0.017787690030985025,0.034596190911576535,-0.019124652687827273,0.13885139527524845,-0.05806212682114037,-0.017046814993091037,0.1557217332159254,0.03346486184422799,0.0896193953229082,0.04948120977901389,-0.036237786775478564,0.062064261943424154,-0.010768691065123959,0.09559534679256512,0.12958907222250068
CD59,-0.06470871241009564,0.05271821882681597,0.25767797281299537,0.007536535741663312,0.09848902425041206,0.005042564662729309,0.07510100796744701,-0.1298113453098558,-0.185411280671072,0.006086296627421898,0.04797963927196048,0.09371283188206944,0.11039488710858479,0.05127686494810107,0.2554705981483407,0.2503236770682206,0.08238891605949399,0.077494992299486,0.05678080860687781,0.12652731998101763,0.04402520730309314,0.1645455074293845,0.09013955938268822,0.2524047945959893,0.02602704002825761,0.05177164275082109
COL9A2,0.03958795170579705,0.0011868801278160164,0.1476689794868922,-0.0032356407858818072,0.04003932564238713,-0.014344996697862203,-0.035310378621658776,0.15383962341583587,0.06732958917530447,0.06975034796129172,0.06513739739868776,0.05921666754933133,0.01823733254923345,0.023940930705091432,-0.042804338753498455,0.0696012333685575,-0.006421221178187503,0.06084302478295991,-0.007390792379624234,0.028000574615989687,0.06115861748783356,-0.05440639636400306,0.07869135145505911,0.15726716930213072,-0.002974220945134242,0.009960896033034223
DLL3,-0.034726955218677066,-0.05403246523719701,0.017526608638424698,-0.017083349588650487,-0.015039779882613341,-0.02411030637747301,-0.006510560829863643,0.21420313300761248,0.14936050311603835,-0.01737942316174259,-0.04019645258575383,0.02152657173754292,0.0751703003218235,0.025901688290116073,-0.15802766867809792,-0.013773653215575762,-0.05489455016718063,-0.060482455293195195,-0.070022891416769,0.006940926141009493,-0.06404176877074129,-0.0809315213422098,0.06216303878243389,-0.06058458565154006,-0.05577165899731486,0.05397073734785271
FGF5,,,,,,,,,-0.05413587610297472,,,0.022330712925296745,-0.08226061983857005,,,,,,,,,,,0.1379241506429525,0.08698982178840946,
LIN7C,0.05126629268006811,-0.0077614941741127276,0.00486921841051854,0.04108544495152721,0.059459858831133326,0.06411989561675652,0.009622677594866921,0.02784106774772949,0.15167085958373683,0.04328783402868618,0.0008016990135406973,-0.03940301510621026,0.023025683891713767,0.04865865055366422,0.0802829517594972,-0.04375120706958028,0.047051426957562294,0.13960961310852427,-0.0321624946705982,-0.0184327425698503,0.018594860025711077,-0.03890073558824055,0.05854537821483725,-0.011660163390713076,-0.06718039851044628,0.0625282508498214
GDF7,0.008094664296553585,0.006495178462520606,-0.016822283806735512,0.02564025886496481,,0.03505508107548006,,0.10234038641295018,0.08164405287019193,-0.012957696657327515,-0.0202512927228258,-0.04012667027863323,,,,,,0.0620101781391693,,-0.027176364534753895,0.07984487513845022,0.1070300629493836,,0.04737993371869239,-0.016745387605599703,
PSPN,0.011900726889572333,-0.00890924304559505,0.008252758049191948,0.010493677573286146,0.024082095762272063,0.011303501135247453,-0.03582545473945129,0.013820601048579077,0.07369064465139058,0.02443422574071488,-0.013952340999488284,0.00012437825003501943,-0.026758143947050117,0.016656329827730108,0.040741739884657784,0.01938754816078079,0.012423177646531725,0.11882695177275422,0.014809038435172225,0.021479492375210994,0.03084642712106396,0.07825129530383425,-0.0013954268733183063,0.09364057463753363,0.14392494917808266,-0.014713353100289987
ANGPT1,0.07799819214224941,-0.0640553623406224,0.14968477906385907,0.025785022764346455,-0.015177749694244588,-0.01531359601812072,0.08219078351010849,0.04410008090204097,0.2971388469383048,-0.01950675381062745,-0.012832675922938186,0.07148948574861211,0.05415600360086916,0.014838061615785715,0.0712995975096162,0.04305044730075552,0.02290261453648258,0.05091909906212469,0.008696841400759128,0.13646794231283743,0.0326328727713785,-0.007383471067375541,0.07006423430454801,0.2020935556531519,0.09078953310395822,0.04800061333323577
PNOC,-0.02186607618462079,-0.009255752862117703,-0.06508039951417385,0.026066971714842877,0.007988895825304194,0.0008372658190214683,-0.05705144814871559,-0.145945455499891,-0.2913718105272714,-0.027784880348313667,-0.03698801180816553,-0.03851259294802213,-0.01603403878895958,0.00966823760867339,,,,,,0.05910562442542047,,-0.0034856216401001716,0.01523501013037354,0.06310095288232903,0.028575231545118145,-0.04228258795987157
L1CAM,-0.015433258903164424,-0.033912494765150465,-0.07534584541839805,-0.008314389974320211,0.00604440307773266,0.035691257058678504,0.017512143805242002,-0.04675574737370947,-0.18363638891118078,-0.032881285875988875,-0.0011911293936296015,0.022371853206555194,-0.055356652154851346,-0.06605163516835616,0.019497388584543647,0.02496701970776422,0.028936612418601973,0.10082692433404923,0.011652138333363087,-0.032763858075662,-0.025693320725555954,0.0032848197515616085,-0.11697669360485595,-0.014258756140207086,0.048046447712382485,0.019658036375555046
APOA1,0.10348150970653838,0.04027982091575729,-0.018223340385936586,0.010589894461189108,0.011856717173098573,0.04286645110767716,0.02476459167289903,0.14609856707099178,0.11092084103282114,-0.005690249730348025,-0.03730832207529602,0.02209974577003317,0.027116038547968183,0.05754229764590066,-0.008706775437242345,-0.1655874914855378,0.046489151140936456,0.15090413350174733,0.044918533071231746,0.048319868303195325,0.08745504509044451,0.090075243008904,,0.08100607731392173,-0.029522431217949074,0.0787400715445744
PSEN1,-0.009397921946276522,0.047617827924905286,0.09432356994546644,0.039599912809204635,0.07079587169785756,0.003952898356520849,0.014793440757727289,0.07691096557724274,0.0663843510414031,0.03286597768084731,0.03635915316766501,0.0836988666037498,-0.017680740096363164,0.012520813553112919,0.07156364943742677,0.10632362028562264,-0.0026053655358780643,-0.15916137647619696,0.028959223911513992,0.056622115127852285,-0.04372478659039557,0.03995142941985121,0.108398395130731,0.0761154239110664,0.04582554924820467,-0.020319564954840247
CALM2,-0.036515051075447225,-0.10279456673630363,0.0036925313702115673,-0.11886496013944267,0.08497668324404267,-0.0356407497884712,-0.04831074047123197,-0.2517842595326713,-0.5020416764850049,-0.08809767993223656,-0.0798113434546138,-0.11969264389409578,0.13756283605105074,-0.0038032446367795843,-0.054771349376477346,-0.058066749045204404,0.11237023541981273,-0.15455079804586877,0.05226421059004448,0.03413439023762458,-0.061752354847439406,-0.10319726864838413,0.004498783293486643,-0.15010902151966007,-0.1889569858062218,0.13055414080373104
CLEC2B,0.00011819597748777119,0.06934242783412667,0.07347790680253581,0.020866057706274723,-0.008407900363995113,0.016377087246855895,0.1077861909262312,0.06716651714473243,0.3769857379018301,0.062364374074782854,-0.025656582629744653,0.06174772904747213,0.02394401209721023,0.06644657631658159,0.23478745896156925,0.09897596113046477,-0.006231047687599581,0.12824110203156025,0.11762526940874883,0.10185968221467344,0.0716149946939813,0.07140379964027414,0.026716017709375046,0.2027331616415983,0.009849052033020202,-0.09242638932557475
NTNG1,0.10122933955077103,-0.04190005888476136,0.06109726960828227,-0.027651195248944282,,0.027562442945324693,0.06484603822094775,0.008423443702615926,0.1021703187773103,0.0482406887799431,0.03882733794692881,0.03229669680053173,0.09399070134323106,0.018526117121351177,0.04837601788294106,0.10050514901290518,-0.12776434018538133,0.089726106136893,0.0414991993069124,0.057433698846649214,0.0629944817550224,0.020559543366940727,0.0027850346831403213,0.059995415268372564,0.0840331537995993,-0.007288093268660104
LRIG1,0.021313455168709475,0.042633806343644776,0.014267750303800822,-0.05236463259697337,0.005269051979763273,-0.07936788418765531,0.04201094372538142,0.010312539394769912,0.2486911155552063,0.022330331414823944,0.061066495929896186,0.1005798180918517,-0.06841390678290563,0.005371123791746695,0.13133113874933083,0.053302942218740976,0.008888149378335007,0.14497179460617596,-0.06526364781643572,0.05688004974210558,0.12019231958982796,-0.06774532956267719,0.09446712371137843,-0.16836398517689308,0.04255714505084351,0.00016302985777478724
CPAMD8,-0.031430030962022217,,0.060011165752728544,,,-0.05885012485309492,-0.08351712849328546,0.024659834888433787,0.010897484793927917,-0.017278811928691806,-0.039731442480380255,0.039461177161083764,,0.0581355985828764,-0.07567322340926427,,-0.0008859238789238191,0.02512391339929943,,0.018142564971396928,-0.02102095498230357,,-0.06255151932898073,0.1115981904730722,-0.057827543162480254,0.09566680953449096
GHRL,0.019611025895128018,,0.054397599460804844,-0.027416270445863287,,-0.0095380276929015,-0.00699878755770889,0.040373904523471525,0.034533095785842606,0.03478297239742354,0.018421318301384503,-0.0027764275970827107,,0.008887950903981763,-0.024880222334413143,-0.0830311618799451,0.05463188106612979,0.0636922568764634,,,0.09324063215757476,-0.020018694452140582,,0.11182319490886786,-0.001183663740854562,
NPY,-0.03799658966065615,-0.029850424769226135,0.039887188521712656,-0.024191035640752385,-0.07308999163034191,-0.007659017812569431,-0.03465085582870764,-0.16738787658236012,-0.1851841638349344,-0.0168201702217292,-0.01890315192339627,-0.0017539012563573364,,-0.0074158690016117345,-0.03236604392551918,-0.036141585626006334,,-0.08019693289791116,0.060038799692682894,0.10705141095078129,0.01861608187998333,-0.012890514381115112,-0.031419037460663574,0.08838687074711117,-0.0888327231028446,-0.00440319222055752
MMP2,0.06724596134623509,0.003308353414110084,0.24113997970409598,0.03131933230055808,0.005029687709529573,0.0066253338354897665,-0.055481361837655674,0.24529205066442367,0.36925202906294324,0.04293904424340629,0.08327548387273793,0.07090836118507374,-0.1308174227642165,0.11894717385036567,0.045423957506189314,0.027531473796229156,0.05099328843944534,0.16080308528010992,-0.027443232456105346,0.12127975886431268,0.1439918910577884,0.1122174570573743,0.08967575179219742,0.24625473874836654,0.07983054688128449,0.2297844548891166
LHB,,,,,,0.029147435444136772,,,,,,,,,,,,,,,,,,,,
PPY,,,0.1000586126602117,,,0.03120277197253086,,,,0.024928125078363738,,,0.036081406372487405,,,,,,-0.026245895428412644,0.04983609459997175,,0.012409461416920734,,0.076585475355003,-0.018093167280994176,
ALKAL2,-0.01709675108080937,0.025671403680212333,0.08824096263450813,-0.0369313242016936,,0.01209847529613771,,-0.02379913526472897,0.0014637126551691208,-0.014698359353745579,0.0393648373766224,0.05906572866973293,-0.08268736736320295,0.00172624822295815,-0.031128888414513913,0.07503713151694118,,-0.02578279454994357,0.08554039086219078,0.01645007481271035,-0.028677606970971763,-0.006655074075201308,,0.04537417033753561,0.026907577915106323,0.037010417698902544
CSF1,0.07880144296845809,0.10392316756843023,0.1169903325282876,0.0465819197966204,0.09263321027545517,0.019397957596688855,0.08381505991124248,0.19304588971178924,0.3183824349155561,0.0838908986403715,0.02089892542286588,0.06983791782708529,0.03418793260861945,0.08200932164005756,0.05553212328574251,0.032666420847331644,-0.06626152611177903,0.06556112991750522,0.04500975340463089,0.028543143197317666,0.09673841165494822,0.10390614231363442,0.06986364949072849,0.02912101632362521,0.1280305868141768,-0.05343968870082623
SEMA4C,0.06226735865397228,0.047871844022917304,0.16427016028609645,0.05610477307103023,-0.043507355160186334,0.013111044731264955,0.07613943679773273,0.16383498701022406,0.09081259742734704,0.032933575495282724,-0.012595940151166742,0.03460854377288709,0.03571759031903636,0.036361256529262885,0.12093633643260664,0.024954970368660706,0.0572552313818646,0.03346942760925893,0.013601814870106317,0.10061199621939533,0.0777702318558123,0.04122508098188821,-0.04680179253614671,0.2302509190844026,0.00968961446730603,0.04510889878908153
BMP8A,,,,,,,,,,,,,,,,,,,,,,,,0.10597864152429065,,
ICAM2,0.07075601816053091,0.019058599675835352,0.2289144011045531,0.0222890065584339,0.08927813831777384,0.053395935878156775,-0.032018750318218714,0.0275410772567426,0.2331587626257437,0.03597397098183517,0.06447136136326052,0.07490221740804658,0.03409998435279519,0.05094598212689167,0.2781019792901744,0.10303416119244246,0.16300860729871663,0.1959146435699564,0.13513130771583032,0.15049431332505606,0.1330264664030081,0.08617124127103448,0.06152256641428711,0.3949336223198474,0.05483639372951345,-0.018814755579524833
SYTL3,0.02199057858797821,0.04757066398465676,-0.010876427914093984,0.027112171129632958,0.05165865440472361,0.004091876556274509,0.005507175241026256,0.0683315973067396,0.1839831092840171,0.02451219844517071,0.024516732070255648,0.01680999189946177,-0.0181193272489163,0.10010801306556788,-0.003274102933746148,0.0010115876904904675,-0.0686910670193244,0.13664844818021615,-0.0033896807942655795,0.05613136754274015,-0.009860890949155371,0.03820397993383996,0.06521020108122386,0.12000990873949886,0.17503106910200528,
IL1A,0.04845260238600746,-0.08894825651823245,0.09211325149234091,-0.02598268952123741,-0.013957904832539628,0.04856581959630015,-0.010481683104413319,-0.04446825392633812,0.17923362102151943,0.05448100859946639,-0.007474927816395008,0.12576423323236852,,-0.008556703618023175,-0.016751966822524344,0.0902917052546492,-0.006416198650644102,0.09634100098123369,0.050245061132077086,0.041065286853755684,0.028292821106075342,-0.02654378071356866,0.003231096587108107,0.08557112842808359,0.012757473545132469,0.06510586193311586
HLA-G,,0.028808469277303583,-0.034069639942589915,,,-0.028025344558113636,,-0.033353528190665546,,,,,,,,-0.030047170620182383,0.027538193512881733,,0.07386242682980569,0.03184512627740637,,-0.005114273102763313,,,,
PGF,0.027521769414881606,0.03701123829815657,0.30463294187905837,-0.0562224157280308,0.04162326233763378,0.008243373422959933,0.025103110907884894,0.15881279139680754,0.4119416863049083,0.10062314246088949,0.009857923578936093,0.008759952324900207,0.03434790267885538,0.06593842703439093,0.2727120446143479,0.11456257518935058,0.06857305645166661,0.32474925668796584,0.1160748020748658,0.13349289729393243,0.1844136291316749,0.16092973819096174,-0.01573801778976422,0.3347992267444778,0.1610021421127231,0.07248373201515848
LGALS8,0.04182989598420112,-0.05372729198269103,0.030908982202190176,0.03646186784499786,0.1077446830618803,-0.052627830742541945,0.04761283766989345,0.03272141828554244,0.11118429136244068,0.018228315807510744,-0.01526777728238067,-0.02337779326136354,-0.022089089132639437,0.031623001925862336,0.04825178826283915,-0.07474241145790518,-0.03867883652799528,0.14912745154316606,0.04258575946263204,0.07321575918881208,0.005232280346234882,0.03865653333128749,0.05999473371371945,0.1169625907398645,0.10552440165882784,-0.05311579005081426
DKK3,-0.05226989315801149,-0.028497887327528906,0.05598266715119139,-0.04537042379554932,0.051492696827122625,-0.0164345897969594,-0.06471086909010013,-0.3284082120747477,-0.33995820303195395,-0.08650562909134342,0.011957762289400512,-0.12127003832531033,0.1499977413396672,1.547852234813579e-05,0.25887080334733437,0.07023591387950842,0.01931507261352721,-0.006106042131301445,0.022430484988467028,0.05212313652517316,0.16079954565450777,0.03461478358355712,-0.029262542188803985,0.15914644826138755,-0.10493787967792713,-0.031569584311587975
COL16A1,0.09330616339194393,0.008971607391008161,0.18581252994854536,0.01281420563026324,0.05311966191238879,0.02249143824616585,0.05284785144441562,0.06061842151550578,0.08281935425614975,0.03481923499498423,0.0532141781612731,-0.0009435760000341548,0.05810870563970438,0.011063948594494088,0.08743594153428563,0.1371416954608951,0.0021813617775929836,0.10498880332526363,0.0234422422738679,0.060093940185633785,0.10393460656211015,0.14408532667133925,0.047588560876288384,0.25728566986802853,0.11737026411635826,0.13047038695926477
TPH1,0.047750063550414924,0.0001679034155581443,-0.00019389091817805735,,0.031820770810887945,0.004428529819517032,-0.002894982137197012,0.06335201178178562,0.14404583991995673,0.030694254626531175,,,,0.005678832701421316,,-0.03942453345795444,0.024254163792777516,,-0.06416214246931728,0.005596935426005193,0.10587649880826501,-0.01741210807659547,,0.1211567209696812,-0.003282026423682058,-0.07206843345139936
TNC,0.02715046633012235,0.08959601560524137,0.16775408594318572,0.004657339600790617,0.16600606393404474,-0.0006564533860713281,0.1562237209590888,0.23642394930959462,0.5108706049474471,0.11604109684717381,-0.014329141557568585,0.13553019432669858,-0.08236414478979305,0.07755843408580589,0.09968010338564542,-0.021938113876626295,0.07147021412020779,0.29167847296239535,0.041107120964844236,0.09284420657227452,0.1942051171369744,0.09383793704328756,0.013900005191001786,0.027127278917913795,0.15396450679839882,0.08647264480648142
TNFSF9,0.022268616879322866,-0.0640275523734143,0.011596113210174524,-0.02273387913942628,0.01518078430336558,0.01839279498954407,-0.08675247106319668,-0.0020608065732554484,-0.12079163775419502,0.027544666102776078,-0.049965572456077,0.0015221206698901664,-0.050121459277710376,0.02174908655445196,,,0.010978846710232738,0.06120733199337802,0.03190123679871114,0.0038719525363824425,-0.010091688821636524,0.011418417351994756,-0.04353939663080274,-0.012578790810367104,-0.011421557244696552,0.04817213545255079
C4A,,,,9.817725246788706e-05,,-0.008684509970147577,,,,-0.01856965261042016,,0.016119650191799804,0.026802811201714648,0.04832855616236105,,0.027445893826222652,,,0.021835198238358743,,0.005996400709820008,-0.004155120680792333,-0.027655277795923517,-0.0017957749237032382,,
CNTN2,-0.0731448528209413,-0.06923605842124488,-0.032545489129177076,0.06416437363246338,0.043334702972568195,0.01276591197879247,-0.015776007209363754,0.11588001052499722,-0.09675456733037106,0.0017530437394407711,0.0029624116465449845,0.0953908685665761,-0.008073371169685581,0.013519005660278213,0.0087564435901225,0.04879594262792727,-0.016964468443979464,-0.26981490292642746,-0.10745165092544882,0.028210716068739556,-0.11108712482199103,-0.11252626751247835,0.06385636683775266,0.033876894006434205,-0.020474415333896462,0.025734384107287334
F7,,,0.04240028145830589,,,,,-0.026308021332957284,-0.00617292507571756,,,,0.03904291109468624,,,,,,-0.05985752404124618,,,0.031149344373514094,,,0.048162395931960665,
LUM,0.11315511102854159,0.1024479956184493,0.34522533677863027,0.023938272386246528,0.06658040033552402,0.0506959159166395,0.03226206547961525,0.09012567297345929,0.4384978361556984,0.06635184548455818,-0.00805821624894307,0.08734106618182602,-0.011876174182324343,0.1653689025015558,0.19770644037613908,0.21185687975910064,0.17037036344748452,0.21401292990458104,0.21285449436574236,0.21227755304791066,0.19822635663761654,0.25183001417666767,-0.07779117170951613,0.36096384517098395,0.21842537776136853,
IZUMO1,0.023720945980937908,,,,,,,,,,,,,,,,,,,,,,,,,
BTC,,,0.04332977855375586,-0.008746840885068262,,-0.031139569959262595,0.039184007665544696,,,,0.012718328838055775,0.04295749897820319,,,,,0.08565854218838898,,0.053774377486498146,0.058539825802009525,0.0294548621527982,0.00935644522242424,,0.028629363035713003,0.06034099478479252,
APOC1,-0.07916811411845215,-0.014244875812956312,0.0027054341428276955,0.1398204413406939,-0.027824398279076908,-0.06401869007741,-0.1419459726933406,0.2817508258392403,0.49678177310390104,0.01722217791715727,0.01809214628283419,0.11830023217723024,0.1011564067274705,0.05404100598683079,0.06422129599664053,0.10482868754301411,0.07369284140525265,0.108221946458523,-0.044323182972162416,-0.09994671398283847,0.07694867388933065,-0.14529488917783823,0.17259071669653203,-0.06942667155819382,-0.07340460306375798,-0.019610831470621922
PKM,-0.00024477237818410044,0.10750719738861923,-0.1061934062201435,-0.003679067734086972,0.05830085648119443,0.004072047455820904,0.06415689873553153,-0.07897920905268403,0.17746415883418012,-0.03747023425608486,-0.038765840706665264,-0.004381641702005231,0.16250460596039049,-0.017389001263644985,-0.07935084803043921,-0.09031901218958763,0.04069226150518484,0.21437182988221157,0.0611176183429726,0.07987302690182124,0.13952286342188228,0.016762412849067144,0.017442235444567297,-0.03832494249885154,0.09361749973418282,0.03921708183609657
TNF,,0.02603400077420541,0.09642734578738323,0.09767089167546893,,-0.03497343509012745,0.04165181424776291,0.08321748019165734,0.03949212065779035,-0.012369861969217365,0.012438715066386776,0.045819530378603805,0.08451741168491551,-0.0018396117237670742,0.03382395523334956,-0.06362259849128042,0.006300989714855057,0.03954873367910925,0.023197766187309402,0.004015062864194926,,,,0.13184958507296,-0.007711221590800327,-0.04270723469218792
GNAS,0.06180188231518858,-0.025603492622060978,-0.14773649209838896,-0.009187416804903337,-0.020793490844550774,-0.0030189848655199115,-0.10589001921520824,-0.24733342509651593,-0.32430286599832814,-0.026077316932567655,-0.02318217095505741,-0.1687473605059582,-0.07801423421486543,-0.0345089850252135,0.13884366979623194,-0.10643705109074002,0.10780839739429338,0.03152387409449405,-0.08944528890642962,-0.0225840753195649,0.19823745571996387,-0.06390826816935741,-0.0030748554074746153,-0.12501272340430156,-0.04812070922826837,0.03028104298167005
BMP8B,0.0532505028476234,0.0399777334644209,0.0370167658091605,0.009343354199429305,-0.03979178866858168,0.04030035549768116,0.03415606540652041,0.22668962716308466,0.07860587496646038,-0.006085182249005781,-0.009312374504968534,0.0754178808939675,0.05974349867807022,0.08585115009105442,0.12743719501783643,0.010509844790906178,0.009262212843122357,0.039551205014647914,0.06463354001580424,0.07633971152607938,0.07658780818453804,0.02767400452598415,0.07784178736230027,0.26973376581475533,0.04672799415415611,0.17897038232979934
LIPH,,0.07554031561382965,0.06542763296848608,,0.07960475663542493,-0.040046042447869516,,,,-0.005122910111129938,,,,,,0.0023998302810886423,,,0.0023659629463772505,0.07032946841755397,,0.019290620352841698,,0.04085213043400114,0.016039685422854673,
CCL28,,0.004047594490879959,-0.06688004424456699,,,,,-0.011338955106372436,,-0.002648567480467121,0.02939014757001337,-0.04925431025524451,,0.09401778457862268,,-0.08116210536150874,,,,,-0.00016371024227322906,,,-0.0006869557311562638,-0.0005425608458893464,
PTPN11,0.008855700411659034,-0.05011340001777196,0.030892705067238034,0.04551279396063069,-0.0009540619261241381,-0.023259282140455997,0.024611989042720692,0.025646003224429982,0.07371255921496289,0.0022333995713579398,0.013935021047933016,-0.01600290514435931,0.033902344796894385,0.012395989280506932,-0.06329795155149609,-0.15499187461415073,-0.05883664844560746,-0.10303934517530419,0.017799466226342247,0.026980996154069414,-0.08604141898990814,-0.0449717161948461,0.01698858610062177,-0.023463349808385988,-0.021405946587569835,0.11927669034408112
ADAM12,0.06173477726773492,0.09991887905999902,0.25086711047486937,0.039115083493254946,0.061444953122534694,0.034441418149664824,0.04168605715886379,0.17060457717810013,0.30502078347040446,0.09827613092534897,-0.026435109267105256,0.07750918659625727,-0.12036006970573566,0.1550011985597723,0.13852397829787433,0.07538196794246904,0.1601315241561851,0.16429279321409238,0.14717690519283938,0.11476073597825893,0.14989103116699762,0.14577427342049729,0.004295285593522418,0.24257403975862377,0.20812507006240732,
EPO,,0.00022453139414964484,0.06948351018043021,,,0.01495904645862394,-0.00989710341449257,,,-0.020845354277466782,,,0.023555908618128518,-0.0035248716815443858,,,-0.019866798825357555,0.012024695709345902,-0.018302142374877203,-0.008940100199532395,,0.05056202861102618,,-4.6110646165205866e-05,,
EDN3,0.04832445718842809,0.018231730533538364,0.0221066775518398,0.03882423980332589,0.09704437599891538,-0.02923003242669153,0.02625673956256997,0.003538210627978609,0.08895566502012908,0.01932834113034909,0.04902307215608126,-0.041623581049695095,,0.0023760923789528402,,,,0.01288952091820105,0.024572948471037092,-0.005658485670970073,0.07699249742579319,0.013106369481243978,,0.0492443518910682,-0.05201307579672122,0.11225340983332222
CCL22,,,,0.014133494361459269,,,,,,0.01487062136837965,,,,,,,,,0.05491165905452055,0.11604206473218331,0.06312639552233604,-0.03630287557426597,0.06748152126470709,0.06955920082344458,,
CCL2,0.021801441839346784,0.06578945422728515,0.3026924100683647,0.017623628348641406,0.08122978165182704,-0.044433559648225596,0.17469075372183288,0.06217669326509964,0.16550938285039393,0.08882114366163696,0.0027412919856917113,0.15686390703967482,0.1909809135523911,0.02395010979323521,0.1651970636943842,-0.027661868521514723,0.06668703416796595,0.23646773064015847,0.10669900764914189,0.1514655670905029,0.040062802120395785,0.15862270630671527,-0.16334941962982893,-0.017829267616077525,0.1496127993736624,-0.03346738253931284
DSCAM,-0.04342212972966901,0.009563282217257676,-0.009147572046651809,0.03352657109216154,-0.05449127867168418,0.017599516489196894,-0.015037565811568324,0.1933541472243886,0.17298871684533942,-0.005714718490463643,-0.004280693998657576,-0.038877557911685116,0.08907652417883533,0.03519684066718872,0.058472583339409454,-0.07763036883855874,0.09361735814386155,0.0109557012050103,-0.03849958137302831,0.01879983737460463,-0.05212265796252427,-0.03376293584054803,0.009266124670624367,-0.07250091638285962,0.03455269918523494,0.04557295485281597
GPHA2,,,0.09645531968803103,,,,,,,,,,,,,,,,,,,,,,,
ANG,0.021483973704109253,0.06803240176392485,-0.00774746669777692,-0.0033742243153693386,0.03185933397326364,0.04804861340215998,-0.005107063272690906,0.030885451008093416,0.23760068450120855,-0.05478609848827044,0.020622341838076808,0.1256540514910366,0.04484649606160573,-0.00457073809999069,-0.0007240213807527128,0.0606395589509991,-0.030899974548070974,0.21203501275918826,-0.047183870660730674,0.043086467409569416,0.09019816847957679,0.017385553118647347,0.010595844664380705,0.04159828190414611,0.08005544199635162,
FBLN2,0.03146488621018665,0.09244192429471862,0.12807486095985127,-0.058571420752949126,0.021058805840225035,-0.021939142952642408,-0.014838553389390687,-0.09021754281447346,0.09727836109904733,0.002138566957935092,0.0888673586676715,0.03525896562867345,-0.040349650845460945,0.00511162500319871,0.005539517436898716,0.016999978345891578,,-0.017160565513819878,0.09992286078102898,0.12230248990294505,0.10662861116153391,0.21749835013928642,-0.04367923059495029,0.2410964819068085,0.07637683155560424,0.12564411287972052
VTN,,-0.014470896439345302,0.047382784224708006,,0.03170412976938771,-0.06683521169685779,0.02682651550856194,-0.018978976821936763,0.09381929670191494,-0.029008964030006853,0.04381107564700926,,,-0.01578214037897681,0.024252607581318628,-0.06904569476447742,0.033629237722259404,,0.058560981764964555,-0.007431604054884025,,0.06338675338175874,,0.01879744240069725,-0.008671094801424004,
VEGFA,0.04876279000932888,0.07285435032436834,-0.24771280256209213,0.014457263042421389,-0.06690229812216332,0.03878771452820066,0.05203540239629143,0.1981199925632052,0.2968402680245618,0.048452250170642246,0.0002014496270792686,0.031881878322454045,-0.06653846858403223,-0.0074140206380138894,0.04174521710779023,-0.026273859336652987,-0.08842302832552813,0.2694393912736077,-0.053237834010109134,-0.010478782933894147,0.05127176308939586,-0.03052391002565705,-0.09807845017781074,-0.31011179580564563,0.09639986700056394,0.09583210361009603
F10,,,,-0.004913217672275546,,,0.006748634922788176,-0.00015627897428633088,0.03302944733216949,-0.04495294168845638,0.006755246870616443,-0.06436895834008645,0.08052237892704858,,0.050843371512444856,,0.018689295728700588,,,-0.013316089292562916,-0.014087799220983362,0.11853622771037256,-0.07546249631928502,-0.005752466646193686,0.00793919411019308,
SERPINA1,-0.038636830571298006,0.047244367083348865,0.11775432078405106,0.032209897897366474,0.02080327566925953,-0.0029637687549433573,0.11519610334500188,0.10842118806995811,0.3462861291704377,0.038039718955027765,0.08873725609075601,0.09486604211805122,0.05081031783147946,-0.015129709073648684,-0.011576965143605648,-0.10349137740404381,-0.08407755230183736,0.21004241287622596,0.07423971846096265,0.10360914288609548,0.09737237334687548,0.0763699104064599,0.12760665465253504,0.21503223790535797,0.10499482549666646,0.1013385793045192
VWF,0.12518387322130486,-0.010643038798719293,0.37381474005706467,0.010712629556181862,0.1192607084238031,0.07173669602441957,-0.016827652885212936,0.05797700235933922,0.4278066109655745,0.050083691074973714,0.0023321183398072984,0.021602057341618196,-0.003299845111285392,0.1837986676532175,0.25423280058934944,0.13027169021074617,0.14889194905011266,0.17237437195937627,0.13236317421538474,0.16536457318358144,0.22936781817236,0.20807312165986222,-0.02459868362196015,0.3109722881146471,0.035668376369461734,0.06506317618138616
GDNF,,,0.0036982716023511923,,0.05955411166186372,0.00503420387734973,,0.10930003309850751,,,,,-0.0027530480169554753,-0.04215201684189849,,,-0.012439885994166809,0.07206421978410056,-0.006537921128592235,0.08060126686748258,,-0.014610121143128952,,,,0.07472369800953547
VASP,0.06277888786354253,0.0380709883591895,0.330918478146448,-0.019321455560809716,0.09480486632238781,0.022478353976229725,0.011497826508045959,0.1786644313190782,0.2479220236186041,0.04970542880912781,-0.005066672983405933,0.0868639627980535,0.07266107969490182,0.09561486826153907,0.26272181679501916,0.06699203275785962,0.011060226103639341,0.2146254035974042,0.050102713434004804,0.05972518608683014,0.06298023133529465,0.16732736177491303,0.04561365111025073,0.3502772088864087,0.07314082179807323,0.012407769288965085
ADAM15,0.029505922795710453,0.02303862941721022,0.17981907320842322,-0.002333775090209677,0.08454648063394195,-0.005043355710287531,0.054473720620928506,0.23571327227267436,0.12107845961447875,0.03502296915938053,0.0032980597870473365,-0.009051980935076668,0.050623229323663387,0.01726891451760831,0.0994115698076418,0.16368881725986165,0.08462478491522865,0.0630015099621394,0.06361222981941365,0.13827681204773942,0.01620421107639844,0.11675177217135264,0.09616856948246595,0.2523141468333526,0.13228761469354236,0.02552179534058908
WNT2,,-0.021622987162109475,-0.07547626490432303,,0.03971697539568646,,0.016243243278398125,-0.04625292366578427,-0.09793820157785194,,-0.006475826564769465,-0.01806112746737737,,0.028554850260647396,,-0.02884751126265485,,,-0.03424142321004395,-0.00038784031217248055,,0.030979661314429786,,0.1058026366527829,0.04292488058663928,
CALCB,,-0.09446313581681197,,-0.012437753828235636,0.009326138458056847,,0.04061751113550229,0.04467261872031605,-0.06588485566601193,,,-0.0071434743624204195,,,,,,,0.009324785524196914,0.015374861934390577,,0.03693492230884199,,,0.02760520745517475,
OLFM2,-0.047948483313769774,-0.008644725187967888,0.026554893083398073,-0.011806822014300878,0.1249946912403594,0.028903308475453828,0.03751224694620768,-0.017559630108712105,-0.1304336920196908,0.02050596020261707,-0.004535011377313156,0.04000286725863235,-0.02889622450582407,-0.06231255426745316,-0.045259836546249606,0.07237110971995046,-0.07807882755615612,0.1373969838284962,-0.07210401965010915,-0.013231659704843968,0.12804559923321965,-0.13547794978396754,0.023181037321193806,-0.08085015135689502,0.06211443076584027,0.2028639267841107
MFAP2,0.06444538367821395,0.016256253209016545,0.2887186013278613,-0.02357206796342963,,0.046168015186939165,0.012067676012528188,0.1950271497356995,0.30193788939172117,-0.001370049515045185,0.08696341467299981,0.06578023876327545,0.025673008618486277,0.15799998947334912,0.15764737134348536,0.23442931566822228,0.10218936894620496,0.2723169390304494,0.05941063539311963,0.16116752446193572,0.1542883370037474,0.1930304541330839,,0.39695851202923443,0.10944712407585083,
HLA-C,0.13569681525050098,0.06965016429187676,0.17623250829074408,0.0362340096205359,0.09441767410422014,0.0029443512057429153,0.05305551449275863,0.11617488216758556,0.5236971402110667,-0.0037007883179399925,0.12219523970205415,0.1760507735578623,0.14827030186854992,0.11705521576035886,0.147437901639494,0.1092192870289943,0.14193784124188202,0.1921349563334867,0.11844424426095697,0.09788980943612216,0.15507368140268407,0.07794068959786195,0.11227698271001046,0.2176015462190013,0.03106419667457173,-0.022573506275277173
THBS1,-0.018951441503875247,0.0791475274069008,0.1306090030529205,-0.006257817537736291,0.08189806620561654,0.0571297499667766,0.14456880868913283,0.17839543379697123,0.21163362710261632,0.08422245697577782,0.04802478177508768,0.1289275060290998,0.11006712625249435,0.08715461437458631,0.30286626341036066,0.06836836578757469,0.05610043208501293,0.18392460200065827,0.04752518668190425,0.05175628199798306,0.038435147136557476,0.1532251609553593,0.013151927670096934,0.18741336126202254,0.22597044793626114,0.06700240767556732
HSPA4,0.016302530812341093,-0.0600276792661949,0.005997578648044005,0.016131869593449213,0.0002516965526904235,0.05486473049511163,0.06862156745587761,0.06578265013544109,0.04753164288624864,0.06080754447434311,-0.002656050097101172,8.725855782260374e-06,0.07782682343734916,0.07974745089147789,0.09869892517143597,-0.02235082187407497,-0.10083065596211119,0.03458668320719437,0.08079482003530682,0.012464606013727848,-0.047661967574838024,-0.003724692865763388,0.006476139265970586,0.019993332256955883,0.059709680319989814,0.0932905795187512
LMAN1,0.11373455860737745,0.0873675479254251,0.024763993600294604,0.04445609162593278,-0.04454519316445159,0.010969330284048852,0.0628743087007135,0.14771960567852074,0.38104933550966863,0.004806387753435763,0.057718377538527356,0.026534541427244325,-0.004775038557804178,0.051088485247249536,0.11034506793831063,0.0745974082238323,-0.02707675504091353,0.11120983173298947,0.0845926740118924,0.10361367226767364,0.06857637915607209,0.021977842232697564,0.05914777492060133,0.037973557250001046,0.04209153819663665,0.08007508387575865
LYPD3,,,0.07651201372688081,0.009912616378941001,0.008198728838484041,0.049539606040921357,-0.027405693673908268,0.028011485542338614,0.08828524333533375,0.02151487564673026,-0.009904497303653078,0.048065813692207505,-0.03911340026324836,,0.14858225512471424,0.07407632180677713,-0.006334758091999334,0.010485005176275193,0.03487806954119071,-0.006512896003444901,,0.05919217460086724,,0.13716581585414478,0.06761026941946979,
APOE,-0.0003399495544280722,0.027157751232356517,-0.018321813718847564,0.07350531148481779,0.014359537213211652,-0.023584636258997885,-0.028704190800781994,0.11634980065387511,0.28920286470701895,-0.0033314696584955976,0.053878137921439605,0.14560767610191006,0.05482328075654511,0.022390902139156416,-0.07385400732823327,0.002274524381925064,0.01952596612152871,-0.06041087674903151,-0.08693830223463848,-0.0525335185331067,0.13555215536880355,-0.06684963977252922,0.1818108738107127,0.03019476119021132,-0.06775904352307319,0.0684763590161773
SOSTDC1,0.0206684189972425,-0.09455115079707856,-0.0004783806172870289,,,,-0.02429683088847714,-0.02908643134526054,0.029505326235646147,0.03712496560208623,-0.03910356959515134,-0.05340739897501203,,0.022305646265738152,,,,,-0.015303702396625953,0.015497121360821169,,0.0418778555087684,,0.021386920832287815,-0.013631839827442191,0.010368872328045405
ANXA1,-0.06189522936217744,0.047270362390555654,0.23020480025205003,0.07130498885901636,0.07598265345732863,-0.027959504643390604,0.14959219351689093,0.13550840788304672,0.474925994654536,-0.0015818150465741372,0.04944580195693103,0.17441482267903866,0.0876875193039423,0.0842997949808582,0.1871551290000917,0.21124856499794065,0.02994664804267231,0.28462482197861494,0.07037507886609233,0.12561502900151653,0.019483089226483095,0.03353115946030114,0.014064711943818836,-0.04827446191682421,0.10382052452718893,-0.0034878485623087148
WNT2B,0.048697440438721484,-0.009479374256700193,0.0037701474741540886,-0.035246314595140105,0.04307069469204334,0.09644454062708896,-0.025204937251628808,-0.020461404506686362,0.118507566791553,0.07046779013857746,-0.007796837039030247,-0.03079140245453008,-0.11178553606265974,-0.06011246730430335,0.03214430619209655,0.06453374777868845,0.022359498686762267,-0.003780514742880246,0.055499422591446315,0.09385180180452524,-0.012813880838671817,0.023580347879435443,0.054623407226877196,0.04443673794478817,0.0894568152861395,-0.06735946805849911
AMH,,-0.04941879794603905,0.020980447309568027,-0.0255134130016639,0.07014410677217528,-0.014888394344591941,-0.0133619383460138,0.08999803890620797,0.07052261330665116,-0.013525804364901193,0.010780641843622494,,0.026917183780659864,0.09069229388558371,,,0.028952082629232146,0.13647350946397288,0.04251509914010376,0.0439297906879862,-0.013058569355106114,0.0029299391967365996,,0.06003979934595415,0.018521770268882246,
GDF10,,-0.08489380607718519,0.03382160803381019,-0.03354306656103889,,,-0.07842959068956619,-0.030409271541636754,-0.07619825156109314,-0.01857925550288619,-0.022960159454177804,-0.01895293524945042,,-0.027674140575697625,0.051435387532212586,0.126382391383439,0.1152397627118359,,-0.022208557219972662,0.0235463019706847,0.027935977535747347,0.07251171118094672,-0.06218842322552018,0.16961082503976602,0.013201586378186369,0.003100007191771676
EFNB3,0.014764326311965989,0.05056019829344265,-9.025175245284989e-05,-0.012365189197983123,-0.0006382778823893318,0.020971584975606503,-0.02945171588126407,-0.11436560712773586,-0.08805631038129039,-0.004856400482589899,-0.00193356640846989,-0.07254372329349365,-0.03872383502890194,-0.005456719761542184,0.02375275975021779,0.09262910814676759,0.027186850836557353,0.10941964758099253,0.03591751681493649,0.09654612343176738,0.13190288456176813,0.0215221563002106,-0.036959859112702206,0.03316174739871714,-0.04820363480252831,0.014776884330635285
LTB,0.016087316262665668,-0.07045027765033264,-0.030989675175476065,0.008021790300896081,,-0.03328856616581901,0.013929555624675492,-0.03432839223577524,-0.038251324719539105,-0.01796213236971346,0.05038199624766235,0.027173693147852573,0.025418938589562932,-0.07119679547381742,0.040027377469808424,0.055773333432073316,-0.014651879196407558,0.11031471134804803,0.05138755251067463,0.03778998960230095,0.08206157132119653,0.022424740136071618,,0.2550166594681643,0.06039230229769748,0.03255205290540795
ANGPT2,0.02524301324949457,0.00564720753678271,0.29407543504818023,-0.004681437046918965,0.04914928296646934,0.09972638085829982,0.03446757329994399,0.17660007567440195,0.47557307729545195,0.0471420925783317,0.02291914011809851,0.03727984688027187,0.006154187908988807,0.14648072398391251,0.3470274409082498,0.23013792063508848,0.17105755483219834,0.23649852737475924,0.19062843901121718,0.1622252618849149,0.19691024306934646,0.17359822550435866,-0.0474444729501902,0.20837723878471945,0.12372804795957901,0.11869231372687243
NRTN,,,,,,,,,,,,,,,,,,-0.013153326945314106,,,0.015250159464197565,0.0026062766539095028,,,,0.051848436106163
ADAM17,0.024665653222863668,0.06062806249723041,0.060572367801053704,0.00038078915712535095,0.06828752111670741,-0.010580191337678551,0.09566640384810006,0.20060414872402876,0.24292857993415445,0.01676895323974231,0.05260707994317141,0.06445633836144583,0.04536859659626654,0.07134558093425737,0.021915650296258186,-0.07074097590520491,-0.021932703535323738,0.10327870887770373,0.012039217843281309,0.05205803666203354,0.01973510024442847,0.004864845007603629,0.1090656025958348,0.07010265920295036,0.09527901423750645,0.05393715306595278
LRPAP1,0.00458489283336937,0.05883161209132333,0.01404824842053647,0.06472037479037072,0.045580312355713755,-0.00659577141518266,-0.03321651308083991,-0.06969346329894133,0.21661092629668235,-0.03460243677766977,0.014733686834801148,-0.007519739858808943,0.0898728288546776,-0.03556942906910084,0.04702153794800845,0.1483201572932478,-0.07523132993039894,0.10360416916316667,0.044190693061206286,0.032374918950754374,0.10950827771756572,0.028812700568437804,0.03899203638686605,0.06922702900119425,0.046329168137746166,0.0286217366617573
NID1,0.04025427729939098,0.024902168776467035,0.3084318570232705,0.04456179662796363,0.024940188580845447,0.05570419247184161,0.10044886284353155,0.17186914569386608,0.4864302360159928,0.04228969704304165,0.04570519976920663,0.06924312196274092,0.07274864258374175,0.18881111323202956,0.36526546034237667,0.16512332006551092,0.13215084792463092,0.24600888618030625,0.12048515635322099,0.13786173868018978,0.21026946425317736,0.27093053556764685,0.015505873008448941,0.3354958553779938,0.20267482305587342,0.10429155995145611
MST1,0.0009026845020982876,0.08612504019282971,0.019474059013207114,-0.0029517517582106087,-0.004749629133222263,-0.04720556737316888,0.051013237409818356,0.10645453027518338,0.3330517692985594,0.027332000030328662,-0.03802013296312352,0.058122886438027765,0.04859528996319131,0.033241963524615246,-0.05859342695698326,0.030721027329563163,0.00437021385895587,0.048028984184157894,0.035451443482749416,0.005073649680196435,0.07740333623811539,0.04540295471805217,-0.00928324395907555,0.07201974537763306,0.16244201281208162,0.04833231363809696
CCL14,,,,,,,,,,,,,-0.07703082732440153,,,,,,,,,,,,,
IL13,,,,,,,,,0.0423554744615784,,,,,0.03525120578996781,,0.10238281322813432,,,,,,,,,,
