,UKF248,UKF269,UKF275,UKF304,UKF313,ZH8811Abulk,ZH8811Bbulk,ZH8812bulk,ZH881T1
IGFL3,,-0.017845843191796495,,,,,,-0.019085629517645173,
BMP1,0.03469070501137918,0.06532915838078869,0.043710443660103494,-0.03185479743825387,0.04645597192194694,-0.015827239437621637,0.020991261536806163,0.016982208251826628,-0.01982773403265245
NDP,-0.011334567265528669,0.023846086077439016,0.011859668866022927,0.05050918995416982,-0.042346322956972625,0.07151987505825613,0.10878956147823647,-0.019522176479636468,-0.06385726133828323
TNFSF18,-0.02723213112352285,-0.01215212223314217,-0.018249271935700733,,,,,-0.01968267284040312,
RTN4,0.026312408934146023,-0.1078743613543142,3.14421563977818e-05,0.040751358209674925,0.015493594795239332,-0.023105449481958425,-0.07025542562211551,0.01844752609745589,-0.0034109569752694335
HEBP1,0.050445557038311474,0.03781684597301358,-0.035961735374411975,0.0702978671269051,0.016370858156231554,-0.02096627713118524,0.06608763070294553,0.05109332154335913,-0.018158979810537063
WNT7B,0.022683514368041825,-0.06345150755114275,-0.021578374252169123,,0.03933634164178477,0.0037736375759006165,0.010013520946241692,-0.0012476858401713592,0.00507163095730579
PTMA,0.016995935331299308,-0.04946179597397408,0.07159549580470603,-0.011760128236885756,0.05460007400312429,-0.0022996087699311517,-0.05751864744549384,-0.017838602757395555,0.0290026212900969
CEACAM1,-0.01733250514458667,0.010714984417242597,0.010278094633900848,,,0.051157476444325264,-0.012693197071032272,-0.02828194597280179,-0.016364894282750973
PDAP1,-0.03105207016806864,0.05293472257800265,0.025925928845700837,0.07327038422031787,0.026279081294209576,-0.008918134664910508,-0.06626767724880679,0.04652076286450764,-0.04283773003422715
QDPR,-0.04142049139702559,-0.05368520892930872,0.03274337803470875,0.035602566455472814,0.04971821718299398,0.02128439239470351,0.09859284814437777,-0.009293103628577633,0.06772097294245674
POMC,0.058800845711318106,0.0020801207439668885,-0.021175012035756106,-0.00026070136118925224,0.013387596842687113,0.07261503207368555,0.013247845955782466,-0.06116807366331391,-0.02677081726190824
CCL18,0.09058386757602731,,,0.00773142352043188,0.041006140515401114,0.021340938279018857,0.07990899555616783,,-0.011066255028792263
CCL17,,,-0.022760395127929874,,,-0.016443617843190404,0.06012639244508144,0.01462620424872754,
VEGFD,0.04265274301584053,-0.016584547241429638,-0.0018602273125009415,-0.002834573431426062,0.11615903205384223,,-0.013230763831302814,-0.026539514903895587,
TNFSF13,0.06577057172037097,,,,,0.010626391196312165,0.03596882437306159,-0.02698438509373546,-0.018376679462825393
WNT5A,0.032255832405929385,0.08320646691432003,0.015300971015367554,0.12249060928388464,0.034769100445046816,0.010779020109589994,0.032364372228378145,0.05264137483583063,0.008600643422383394
CXCL8,0.06704382172888199,-0.002545665322144187,0.008094290048534339,0.040087743648384286,0.05290646432033457,-0.017248034950730323,-0.06606945740023991,-0.035726400840579244,0.017868964816911043
GRN,0.02838994773836121,0.1386939962011518,0.008853882761257896,0.024724946485044436,-0.026445622018925384,-0.00802755014264186,-0.03226703145622776,-0.052184626763549784,0.004634014750169646
MIA,0.1312584036745046,0.05501687351790088,-0.017415231763285095,,-0.019758427740898067,0.11437288011536939,0.1047157169915468,-0.023471880472239717,0.010023966086452462
COL4A4,-0.025976648126209024,-0.017585753854821938,-0.023762556689946805,,,0.040913148138971026,-0.005705794389817743,-0.03876202963139106,-0.03298091821072195
TAC1,0.08614696061999814,-0.08699509145140052,0.1144314471510428,-0.00888421066270326,,,,,0.027611513332967685
RARRES2,0.04004375717190006,0.11050192323039904,0.02556734116931343,-0.0004168474400501111,-0.00141473351085108,0.006944153540942362,-0.023583267548275992,0.02701429855552652,-0.044644108873014315
FGF7,,0.0801075852428134,0.014515072451842153,-0.014784091655162921,0.04204022604334484,-0.023297807004610725,-0.004849176077671663,0.026607826616147186,-0.007757008211782704
EFNA2,,,,,,,-0.026339119931637612,,
HBEGF,0.024431288020202807,0.0005609563533107177,-0.03885972363947847,0.013054894002346766,0.07633610097881163,-0.02806829944224669,0.05627748984888439,0.022185681211782583,-0.014706330454316867
CSF3,,-0.018605389094671864,,,0.049156751708036614,-0.039734034068783466,-0.008448764550854256,,-0.023461311377049925
PI3,0.007919220624841187,-0.020949913685156522,,,,-0.006942577792257337,-0.1024319079053604,-0.021380327423171416,-0.02596454988459517
PCSK1N,0.010006251118389478,-0.07722803647782517,-0.001789810668364658,0.02319205880140222,0.013807838486252059,0.014077954492322194,-0.044808495083564936,-0.044067036042267395,0.05213240573560601
NTS,,0.0968650605074293,-0.016703394522640032,-0.021838697775561796,,0.047721586905741,-0.03208921943512159,,-0.038655354504311956
SFRP1,0.010204789776762818,0.05063191795054444,-0.005804837175197662,0.0354489460698671,-0.030712913817100475,0.05072456878250098,0.0024523460499387773,0.04553236589353999,0.052069031274962825
CXCL13,,,,,-0.03117975766804532,-0.03693573708984201,-0.025589582771686072,,-0.007360889373039416
MICA,0.05827903782076117,0.047086856716580104,-0.04553058361314089,0.0002312108496699802,-0.018664210789669337,0.10433100285511385,0.09198408628097265,-0.014047281370388338,0.033972836461198946
TG,0.005309464072385931,-0.02245504005077567,-0.022930236758527928,,-0.031096949969976983,-0.02184945697352232,0.01359778373972609,,0.05795476016917844
ADA,-0.00696324790677489,0.07046888846774577,-0.008133573180564353,-0.04878270372154362,0.0022976545861813752,-0.04222083635987184,0.08323067213566594,-0.09490196218608625,0.06547536962153921
LAMC3,0.016867090761029945,0.10665360728482606,-0.04879875453949512,-0.0004012278982185946,0.016590537023460823,-0.039696416913946916,0.023006052296882604,-0.0370163151703637,0.018584596513677894
CCL7,0.0861538385816281,,,,,-0.024645192882803913,,,
NGF,-0.023621940659021918,,,-0.021838712154895308,-0.017999381396824235,-0.028463224782771142,0.07185417922907163,,-0.020513854931897297
TNFSF15,,,,,0.04103392334081027,-0.024026295644254958,,,-0.014569071584129005
HMGB1,-0.02708744164875555,0.1088375519912395,0.029732523750448134,-0.048924606220151795,-0.010347941278462384,-0.051910081905539536,-0.06997161510857339,0.037239315248762894,0.04513047211918648
ITGB3BP,-0.005508384843572055,0.0964323310572066,-0.03287829089922357,-0.007447382388435283,0.009520868129681082,0.004764741653409116,-0.012324089159664526,-0.06634566076866742,0.07144921395176036
AANAT,-0.003061505763552301,-0.016782564460955787,-0.0074068551927094104,-0.020531601161935663,,-0.021620788167275463,-0.010371190233816005,-0.031126194855137117,
RELN,0.01216349240804054,-0.018065283034340567,0.033139656370802566,-0.0341334518929365,,,,-0.03892522592901511,-0.01759785958942398
IL15,0.08411740130940945,-0.023730546700834704,-0.005720208409651418,-0.016486680833564003,0.06318932478311885,0.055877370217906126,0.00847628369423077,0.0030345406790196136,-0.013527523272628983
UTS2,,0.031328279006894874,,,,-0.018411683497778178,,,
BSG,0.003240359266033229,0.003872287386952896,-0.027304007592723948,0.05562809727914895,-0.012052527969212237,0.04586635687385417,0.006074199035092225,-0.032687389106450034,-0.05010902146656001
ADAMTS3,-0.00031303511996207454,0.09910741764415135,0.018513091852382396,0.10163550193020161,0.0007932906093745726,0.04170530322353288,0.0869248929643779,0.000431214509941022,0.022885539431327498
CD34,0.007030391097552753,0.04447525940707032,0.03626184985289752,-0.04155043280077206,0.022274232642228126,0.009304516891212252,0.09483544557121557,0.020247659156800955,0.023064757961793903
CCL23,,0.02090041333293383,,,,,,,
PLAT,-0.01683872566364145,0.1431157280786849,-0.06933555671043973,-0.0035557080086641617,0.020153117718923197,0.07799551022453802,0.017816301357933953,-0.027596965658304624,0.02686776720372244
NTF3,,,,,-0.015506994266996161,0.014175910862331307,0.05127204599669446,,-0.03391192725049098
LTA,,,-0.01986045704769659,,,,,,
CKLF,-0.00981549470656506,0.124133695454897,0.008040321785344773,-0.029219206327631208,0.011484824868771146,0.02562588119783794,0.04083223484503723,-0.029484153175016233,-0.005802313794569568
APELA,,,,,0.005053441726131958,,,,
CD24,-0.002199159446714647,-0.030996182913884663,0.051970597381097314,0.03369552866298791,0.016077938269822407,0.022183356096187885,-0.013322153223294306,-0.05999625506238559,0.04650519053825855
HSP90AA1,0.06762587885948715,-0.08919426564223107,0.0005521668466290226,0.03462409376260299,-0.005324822674872586,-0.06472652135522049,-0.1561222302028053,-0.033393935312707526,0.03548673474667839
BMP4,-0.012245825975391022,-0.0017680475875471659,0.03500559784530462,0.03542700466524623,0.014967818366179733,0.015851614728015002,-0.005216749991530541,-0.055051184342386435,-0.050485285581703156
SCGB3A1,-0.013758078922822981,,,-0.006970671394360663,-0.00237887422180702,0.03410582546331222,0.043690184730104,,-0.030255364496733047
IGFBP4,0.00628513278671502,0.07039117559075006,-0.07560375172099285,-0.04441032883297011,0.010600176865223883,-0.044178069006909515,-0.056158006287914695,-0.002064802109847278,0.01638577874033055
RSPO4,,,0.025714235130444768,,,,,,-0.020375700391013774
LEFTY2,0.03570671056049256,0.07622985494828267,-0.028096352905725538,0.07892107541513678,-0.01576011450575607,0.061561559100858886,0.10603387712910627,-0.012432951796125854,-0.02770960639384076
PF4,-0.014271798387719678,,,,,,-0.024141626959569326,,
ANGPTL2,0.00882921082218821,0.09562755195130933,0.03149760042843554,0.043538005814231936,-0.08015015667217938,0.057365096453124965,0.06934168790507826,0.04664306036177485,-0.020703464082401608
LRIG2,0.010888173026864425,0.030044315925955693,-0.020053580043517132,0.01967795748691453,-0.04978171562356137,-0.030671259087618623,0.09750334263656613,-0.02945097405119648,-0.06664808107245614
ICOSLG,0.039710945053173935,0.031678717574337004,0.06002538942151336,-0.047856015591853575,-0.03818756541321465,-0.04369038501127323,0.07742486333855297,-0.012609079175585696,-0.032621486935359094
WIF1,-0.012260844201617587,-0.07938032411305512,-0.0023780011431968812,0.030720340508257355,,,,,-0.01894118714262482
NPPC,0.03810853070951322,0.015818996287436105,-0.0268017313688977,0.004844718362745173,,0.014510786210410458,0.018732306874940104,-0.029529681318195597,0.033412596256736135
LYZ,0.04117562461673792,0.03151261934954105,0.011363403313099612,0.023527109859406387,0.014012789378694388,-0.01637389039337835,0.06313858740043414,0.009159079105547219,0.06424126965213718
EREG,,,,-0.022465652697904914,0.02321547675853798,-0.0067417239388202045,0.02257608475705288,,-0.02537827837275232
SPTAN1,-0.05874108459574635,-0.07138351843504112,0.027381384219357523,0.03327040888243056,0.03789804102864876,0.024883507028724747,0.021886112711804493,-0.02033991571287562,-0.0568721239241029
PTH2,,,,,,,,,-0.020944885149444432
LIPC,-0.017472432494445415,0.010479367598920441,0.010118540601166423,-0.04023557451927373,-0.023043089721231973,,,-0.03624619422886356,
COL8A1,0.04228294485887978,0.12519814512728156,-0.05624534447002264,0.039702234599444906,-0.015923705976532608,0.08476975225788239,0.03208318241108346,-0.025667003404438848,0.04092753828475073
GSTM2,-0.022296032482850912,0.02748235358071246,0.015706372097815516,-0.004522677341185423,-0.021094484055712414,0.06557098721037503,0.004744084190120345,-0.00872075673746599,-0.043258420836532224
SPX,-0.016005046228955416,-0.009729764107077973,0.0489365031589503,0.07278599734054576,,0.02944197896287432,0.06836394020478548,-0.0042302473745610145,-0.009605599927222421
MFGE8,0.046492009790009906,0.07203698289956961,-0.02648073940982885,-0.03473700703552401,0.07177369723329839,-0.008958367664791182,0.03908659725067215,-0.02421738414544155,-0.015287124894104933
TGFA,-0.031423531885634785,0.0525657428509962,-0.07857511130168277,-0.02422318107851247,0.08354323847743658,0.01860364787358348,0.06517003490764947,-0.03976838253197702,-0.019306984163229193
SLIT2,0.029542547854131112,0.023016090315339792,0.0026698279115006172,-0.03412918597016178,-0.03052325255093781,0.03425709713964149,0.02019249179092819,0.04126921741610827,0.01744978313698913
PLTP,-0.01932959115898467,0.030594307400100256,0.030384529524662297,0.004038369852334981,-0.0418781181770321,-0.014564056655369724,0.016099752939008064,0.001324923941995444,0.05948614227858355
APOD,0.010654227770023797,0.09988264544185198,0.04137900599883345,0.005040259459910781,0.0884941571572,0.045600938987825995,0.12000605126025228,0.03583405633112416,0.0037866569777040347
B2M,0.08987873366467314,0.11310969756248405,0.044998494631991,0.008586943367535077,0.03304800554830332,0.012269024817754095,0.03349479843572857,0.014982121119845144,0.07265858890621663
OMG,-0.07634061376897872,0.04312976663273329,-0.005793109909458439,0.051551519125758206,-0.01167118320766898,-0.006277605667458636,0.13695177038473905,0.014163050253048195,-0.05199271685061091
CXCL3,0.0711681763270489,-0.022034704887313024,0.0006624756532201287,-0.014343757985188457,0.00032859346202635794,-0.01611972031360842,-0.005126762155531555,-0.021919081406623794,-0.030373069730516677
CXCL10,0.07141208824784119,0.07588553754626935,0.002915657908498532,0.08336861219245713,-0.015903182732429945,-0.025449323323968414,-0.007013851782899032,-0.029529678107328917,0.02433919661283069
RSPO3,-0.018688602114401074,-0.027557860729897105,0.015323605031806251,0.035880526128624336,,0.05204026267229504,0.009755043944890265,,0.08818561168396401
CORT,0.10424350200693018,-0.016152540036643882,0.014020330246560778,-0.04554346451711087,,-0.02810204192259828,0.05754313089200558,,0.04688895370369106
NCAN,-0.02187995084464227,-0.007421148764326986,-0.054890828834632664,0.03152987051310518,,0.03647297479206701,0.12562088661042278,-0.03511061248836678,-0.021773787744862338
PRG4,-0.020690509703278247,0.007711372906853037,-0.01950881041103537,,,-0.026993306224775228,-0.0027137504191049122,,-0.02534856058586241
ZG16B,-0.01907830301265522,0.03398481051513342,0.053935965494453376,,0.07250407066073677,,,,
TGM2,0.03552843441468217,0.0042293299226904444,-0.02584054752040777,-0.032457116054977475,0.023532826846608068,0.002153698659489759,-0.007213651912350119,0.002166207668911733,-0.013643426262606085
VEGFC,-0.02627071828856923,-0.031474516990483696,0.09158664801283141,0.0784006924991057,0.013610269637483737,-0.031716947434361084,-0.03357781125797132,-0.028911629561232804,-0.034775548478317604
WNT6,-0.02219835841197744,-0.023475570711097963,-0.010364803871123639,,-0.023247976588839245,-0.03679083358030577,0.023924192834949325,,-0.013439685818861496
NRG4,-0.01267167496731286,0.021764091334693227,0.01684016712208383,-0.028281606114061723,,,,0.06481798800167239,-0.026906641027913427
PMCH,0.032019769321275794,,-0.011366384869033635,,,-0.025050142101204265,0.011579433092722467,,-0.015491732992219762
COL9A1,-0.02823480884873496,0.004332241178353375,-0.029000900946929493,-0.02215421647195233,,0.04518727349759741,0.08938332791739328,-0.04652203242943371,-0.04531517683936169
GDF11,-0.00018401624215386161,0.09498012144990278,0.015238637876438314,-0.021244682522638184,-0.013808684182979685,0.009310956878364897,-0.05094898529717439,0.055658144937436746,-0.05573994675912429
IL24,,,,,0.07628776786722936,-0.018676782319129535,-0.023756700991753435,,
SORBS1,0.010210365586322656,-0.01927962137890875,0.041178477784342915,0.034438238721996556,0.0815642153860624,-0.009146360507845671,-0.03649795389189278,-0.0793627484534038,0.0574670754295755
DLL1,-0.027081991882503896,0.07646116427492351,0.0421451298240788,-0.0029959669935066364,-0.015671053792653208,0.05154935663668624,0.1297087564046337,0.03548622823450929,-0.01912581728649162
TLN1,-0.031876125800914694,0.06381819001003229,-0.05267628947735682,0.027924503220951965,-0.015866807660341143,-0.012003967178194509,0.018756415929141276,0.0007576648875982829,0.03844571075250116
COL2A1,0.013015582652870384,-0.022034712385967305,,,,-0.04082989453461203,0.034791463475850284,,0.015632238893104996
SHH,,-0.017321961292937782,-0.05108226613627509,,,0.02638254619386194,-0.034099694294259505,-0.05846493448763159,0.03195235527396744
PON2,0.01725061423511445,0.07394736628988728,-0.03696790807681327,-0.012777637482407121,0.027272218274646987,0.06228821268721058,0.05971166593153051,-0.03169652895858875,-0.0711963106175082
ICAM5,0.00042937152185498593,-0.043057981297560666,0.001472828731509355,0.04934804693538283,-0.012410593753367845,0.04485994871129133,0.0691659779995034,,-0.04292723265155649
HPX,-0.02447202244093789,0.11448725086787141,0.030447063330646118,,-0.008892078800844359,0.02524517110851909,0.007993469523472999,-0.03112618210846361,0.00045703862479690204
SFRP2,0.07374677669203974,-0.01758574867645637,-0.02581072709987813,0.03939127498276604,-0.012938795590877551,0.03477582833655568,-0.019689179692611934,0.017447355848339174,8.98035371763261e-05
CFC1,,,-0.0198604582479666,-0.023076815063474754,,,,,
CD70,0.02843118470956775,,0.032113452911829855,,0.08039194517351131,0.004464402009106679,0.007510300616522625,,0.003892682410847249
HP,-0.01713846990370199,0.016420648514169023,-0.00734853515698674,-0.009535320294447132,,0.02632398424564499,-0.07105564322706667,-0.029733232995410853,-0.0031397319698042835
CXCL2,-0.013537273895505103,0.049316264582240595,-0.01687406883202924,0.04801473786608739,0.045342029816405255,-0.023388103128975206,0.025320514099744007,0.0025502647258999287,0.006723674369193211
NPPB,0.05975319912939226,,-0.017390624940698374,,,0.047750813392188673,0.04232196648448867,,0.1550092221978927
CCK,-0.0008753557927348057,-0.09212158885061131,0.07866269695965276,0.03458241687077117,,0.0503482664204555,0.07048612097934986,0.02897124188130835,-0.06233421750613193
SEMA6A,-0.006519856166246473,0.06854958728173363,-0.03534186169053523,0.07592605900828749,-0.0025700459032638365,0.031720238362773906,0.034848963350344604,-0.050991568131912926,-0.006107232351775902
IRAK4,0.06386152166421676,0.09701977532853988,-0.021026709540856503,0.04375498560385424,-0.007669907604591807,0.01460112924572669,0.0583618007485371,-0.058054465898129286,0.0034544567839355678
GSTP1,0.04179490844001121,0.1170276402155772,-0.007409798736802673,0.02191670506583563,0.030730825923773596,0.09784405386940659,0.0428206742741999,0.03535506731203962,-9.210712883872184e-05
VCAM1,-0.008162721464520337,0.06736372749868738,-0.01392265975761278,0.04370035227364045,0.0265200545126068,0.00868150543900001,0.02120033524450342,-0.017680127443378064,0.019441884529204756
NXPH3,0.04994521889067846,0.052355804850259625,0.013134863717011688,0.019834023442045056,-0.024739756608379692,0.08933056053196958,0.04533890119858658,-0.019315066388670834,-0.033235887259565354
MTMR4,0.04804890595949509,0.029792046280486095,-0.0016411313970096163,0.013774474396034608,-0.051979123130256696,0.09508882063073763,0.030103103002093175,-0.005386602432028578,0.007183846203861872
LAMC2,-0.013931307985800173,,-0.02189285662943703,,0.12619290311562886,0.05277533863369781,0.036192556983319184,-0.022445916798829645,-0.015037143235604645
IL10,-0.029435322482908557,-0.002701240551251707,-0.026226845139000074,-0.005861914873689895,0.03515767889737265,-0.03367359853151141,0.01907501261601957,-0.021651242340706124,0.0030180164217649265
SEMA4D,0.006056384741916031,-0.02787204987827924,-0.0035238828480077962,0.049733944976400574,-0.014052584362493363,0.01827510250765622,0.12254842218736418,0.01683722791141192,0.0053258889172556854
TRH,0.004339662309828863,0.045956380496354615,0.003208641691733763,-0.01959900231691718,,-0.02430286889396668,0.0948860829799056,-0.04961212070457171,0.019888639133812502
SEMA6D,0.006593209361849604,0.03314560585633983,0.016429556828963736,0.008802025771165276,-0.017666662195490068,0.015406359627724055,0.011213950403092428,-0.0007655817986729922,0.024551714937425254
CEL,,,,,,0.03696337944088324,0.049362222647443416,0.0336736484447274,0.04535687451896689
PDCD1LG2,-0.03013203483081674,-0.02936156526686538,0.016234584648891177,0.0743524265105116,0.06682356515833135,0.03244766192214519,0.0554208340334006,-0.03623391369044599,-0.0458243780928924
SPINT1,0.16028526788520853,0.06217475622003544,0.024780067596617078,-0.019008755637905543,-0.0034358912770464265,0.01351743103988555,0.002484623771996851,0.02711313948374633,0.06444225878894236
CTHRC1,0.019689748571496316,0.06584143762296922,-0.053386526425049256,-0.05231679360346352,-0.07243503887839961,0.011380508963012362,0.021090479981886356,0.0716058679446445,0.0546628182956845
PODXL,0.03022623242255485,0.08244054859816316,-0.010815770167374882,0.03615470577647781,-0.018439889540580272,-0.0067566908389528795,-0.007369973244257763,0.031009970388760095,0.030116742785464508
JAM3,0.004460676302254368,0.06696179672595627,-0.07131355574764318,0.002331904728689752,-0.02860696699345291,0.011605795530703882,-0.02203134466685431,-0.022964155583088598,0.0074735056596753726
TGFB2,0.05360880807418363,0.03563662637767327,-0.010005944505680769,0.024357424519397073,0.03368823560062859,0.003249884045812136,0.05633338647042129,-0.09326901943368272,-0.001557808261143573
COL18A1,0.015290233395747652,0.11254481894696915,0.0015112608899834183,-0.02478484429060033,0.07778075360825887,-0.05153941010097209,-0.011452605306336834,0.03516374648050232,0.025649751711379426
NODAL,-0.02862493663445835,0.11793297031766019,,,,0.004976738209792923,0.07249554957991111,-0.003999169684844847,-0.01719610109650068
INHBB,0.041611031375220056,0.027693117192569568,0.04999848773601433,-0.004055730196922746,-0.039794631193326685,0.01021953996304667,-0.003046565761981196,-0.041119364690484814,0.01608511549541844
LCN1,-0.013931311120401193,0.00020431616339848155,,,,-0.02969735449608937,0.13552705230660947,,
ARF4,0.07662172454846242,0.03994626126628635,-0.018593457934215657,-0.0022814953666425485,0.014428119185388047,0.03152325865253591,0.07299943401231104,0.012497628629827933,0.020176597630203165
CXCL14,-0.015545645783415449,-0.056880749732065014,-0.0656193400916953,-0.003802815632081268,0.03778614600494236,0.013077741844753885,-0.06035372367247664,-0.029965029625853176,0.0444770698803715
LIF,0.027870520573672196,0.05350893411426394,-0.023602325227179262,-0.03139730371023585,0.0054402894485261815,0.002054556797972671,-0.03879654364291877,-0.016245378656043693,0.016174431270927336
IL17B,,-0.031934910478642387,,,0.01799588594586527,-0.025842981228178404,-0.044372458072981964,,-0.02139354766056595
MMP1,-0.01920661288110878,,,,-0.040291304125475116,-0.04082989841077298,-0.0057413945592674305,,-0.0154917317653693
MATN1,0.019382507134272975,-0.020273255441593672,0.014292559270352055,,0.04425783257640689,-0.001045606581464541,-0.023210948421128207,-0.022705129573791432,-0.022048347569660207
ADAM28,0.019526233246027924,0.10816047801784949,0.009215521990319017,0.03985490018780666,0.08870518453724159,0.031759655604306596,0.029212728217838463,-0.03398961607305966,0.018782752980944884
TCN2,-0.009031748763874936,0.09763308317573549,-0.008311341043243981,0.021748047185719897,0.05265532891806777,0.031389203350150933,0.07368217836281908,0.08226927245816235,0.01366015207678385
THPO,0.033839081978774464,-0.039454410326162835,-0.028072397905251015,-0.03116726072645693,,,,,0.0003468987161711128
CUBN,-0.005956476406217776,0.06700630156126716,-0.007429676587006983,-0.023966626399541818,-0.02312196977624871,0.15519273009072065,0.018171246942218503,-0.03131502954456747,0.03782794928056791
TIMP3,0.020855613957928096,0.08746331675135036,0.04726588195778093,-0.0015682943820810452,-0.012383246780118585,-0.027243016478327692,0.004216715522986599,-0.03401047195698288,-0.02665626095943753
PIGF,-0.03858404279118323,0.030266824808399158,-0.009513790941227205,0.1104007531868372,-0.03243244115280198,0.028976932829875634,0.03223189556231707,-0.12272846562309672,0.039450491329719464
CRH,-0.01632218961865923,-0.029734818558525975,0.03325080803485944,0.014165738437382874,,0.03855296196868196,0.0010999050000939194,-0.009697023579923492,0.01386370704176854
BDNF,-0.02096729772674858,-0.08502212466077393,0.0006325141013958562,0.00563431421385632,-0.02022275262124289,0.009056122675866725,-0.037476374626213074,-0.04864593735314608,0.005963236217674362
CCL5,0.007221187540572175,0.057273753673924926,0.008585597408331891,-0.04698842366562945,-0.020929239368652923,-0.028980945182831848,0.0279849968306378,-0.02448806237942079,-0.017223385658942224
GAD1,0.013598028232625828,-0.02760098542857453,0.05892312979353005,-0.01394827789455893,-0.019640848960373034,0.005009384094021299,0.028733319414108265,0.0032807956770371733,0.06714127783005315
COL14A1,-0.012126443050901065,0.056385043487766816,0.015998516258189936,0.027708532715083008,-0.011489713158498943,0.07113875970750096,-0.026116382027428855,0.00713961987383604,-0.02191907994450378
HLA-A,0.0806999164067646,0.10420928864917148,-0.027503425667017817,0.012871313759972306,0.026452621939137336,-0.03465544298387623,-0.11427356306613143,-0.021540229782199105,0.003818877985199007
CD5L,0.004427902180400136,,,0.03421066527473378,,,,,
FGF18,0.031555439457940836,,-0.003975652959632908,,-0.01361292621871236,-0.0016062769666616652,0.016060283478156252,,-0.012595254883571785
ADM,-0.000819574179598012,0.03946140330000961,-0.040204292682603476,0.005569966034377758,0.00817658789290146,0.025591545611762075,-0.05643840830036868,0.029313189432846908,-0.07994948318100024
CCL15,-0.014968645487833014,,,,,,,,
GNAI2,-0.008470262964350644,0.05659052760871932,-0.01943654434814063,0.031527416265647874,-0.017460560358540975,-0.011690689438197323,0.010511896418059255,0.008615599400938955,-0.009044867665749225
HDC,,0.02473629334105262,,,,,,,
COL11A1,0.05305736833113071,-0.03515581779188123,-0.01199495061033573,0.028669374372067596,0.0435454302056759,0.05491464292234251,-0.04426483440986335,-0.011252730749271413,-0.04932296852277841
NUCB2,0.01954869589048331,0.11382612900485174,0.026061812987352048,0.007132292657988007,0.009439830819137091,-0.052598520928277014,-0.06452517971910407,-0.12040396103056825,-0.002807578870679739
CXCL1,-0.04345408940351839,0.00125292382803561,-0.03247907610122054,-0.03267056226152885,0.10289797808078682,-0.028615100343938663,-0.002985996710062303,0.012297280152955312,-0.044190508287914314
VCAN,-0.024392465324331224,0.08285594785409407,0.029498625791359458,0.017613424912726317,0.044929143549317756,0.002614094650453707,0.05211126725919858,0.02344241614295675,-0.01965170546736666
MMP7,-0.04132814240982422,0.03931280037153848,-0.01739062484568248,-0.01914138255808442,-0.026986474821653228,-0.00666478715854468,-0.03081637374843667,,0.016504437176003812
PTPN6,-0.0304528331583379,0.09274674074889147,0.012445653653231605,0.0624029730006464,0.03837906577287858,-0.008398508449302759,0.03835525945160886,0.04576549955612015,0.01793978059763701
PTGS2,0.07684263469031118,-0.07647760268066367,0.04504738136254421,0.010883747303361002,0.0014149530249557255,0.05301004750921872,0.007191704438970799,-0.02806932287590849,-0.0006286770910669231
XCL1,-0.017886198363639957,,0.03843198085964898,-0.0033324297113173124,-0.024447377354864006,,,,
CD58,0.02245958322585127,0.10395494106446976,-0.023817829369466085,0.09872923057312052,-0.02243689050532997,0.09634389401102422,0.07011310763710793,-0.036064183057807356,0.048664999358292396
TNFSF14,-0.01802218874935618,-0.01584624931410912,-0.006879587704316306,-0.02379034008110128,,-0.006191288529473695,-0.037935410044605586,-0.047243297587701065,-0.02236924764540759
CNTN4,0.05409106616595754,-0.05011669510792796,-0.02323014733125785,-0.016040542211979907,,0.012622570739822231,0.11191370617745719,-0.028493181367113363,-0.027984507522059658
INSL3,0.005524183633966118,,-0.0200532195178605,,,-0.027180848878308815,-0.027375404247644963,,-0.022369245484178086
MFNG,0.010254995655735434,0.08275411248866926,-0.009124106121011536,0.019540517471055265,0.11900006197885463,0.020549432072570022,0.06963186394122557,0.013230495116827083,0.037390749981097066
ICAM1,0.04598434105881073,0.020692908153914506,0.008446584256405721,0.09501935937658837,0.017602155947786916,0.02139990578506245,0.026837997120812397,-0.07887927937523036,0.04798310937568582
PROS1,0.01660337436691708,0.030290699457381703,-0.012337073791459818,0.02224177115837685,0.014125097651251365,0.04854528989445414,-0.03812338141243245,-0.06300444519297532,0.0006697316270823362
CLCF1,0.020922207758460425,-0.04698589654260035,-0.03983099848470763,-0.030713093509473058,0.058675627808563634,-0.028180364911390924,0.06135831574145775,-0.07041436435117093,-0.03627537539224021
PSAP,0.002696209683711718,-0.06263833017214375,0.08789217403479987,0.07303388881241252,-0.06763712594970996,0.022485611836584426,-0.07916520111964795,-0.010834860524658377,-0.01639859553611131
EFEMP1,0.02224972749577896,0.10208425236927768,0.06628305419196202,0.04786507311451522,0.009610566840308553,0.06257433868285017,0.015724750432357368,-0.047761736548905386,0.01927076569334231
C1QTNF1,0.037221464339675964,0.058373859269191954,-0.018761184216618165,0.039286168368491685,0.04057660804868861,-0.014946355531054894,-0.08246299247505702,-0.048350598774438674,-0.03909251137460062
ALB,-0.02477156282674959,-0.02367483535820111,-0.021892856069036806,-0.0025758726429799413,-0.012410597833489367,0.01612597216657438,0.07545940989892122,-0.044601060119871125,0.014505480087050156
CCL13,,,,,0.06004306092991271,0.07602321006926895,,,-0.02509175705239288
EFNA3,0.0008513595212866686,-0.08668384204468899,0.03612658511754869,0.03574075416852701,0.004796452214368831,0.0005220721573965946,0.03061856401128635,-0.03284905503551347,0.025490797822553216
DRAXIN,0.0312773687250307,0.048745707468516745,-0.03991383696936081,-0.026204187042516668,0.021302532155322355,-0.003481914571970151,-0.03996933771562578,-0.06425736850696571,-0.007045620872240599
RAET1L,-0.012481864364389207,,,,,,-0.027712737813543213,,-0.027176547553202007
NPTX2,0.02833462012474522,-0.11931433453737082,0.021328581555501658,0.031904316371104205,-0.0011481993105147204,0.0004995259821555153,0.06238644830588066,0.09150315120735483,0.029606441265620058
FGF11,0.029839678228268357,0.05772935586368078,-0.012559850486119871,0.0011345083089189323,0.03475475567217692,0.0058021732744775725,-0.0038144674719698835,0.00903780084875851,0.0005079368607899429
CD59,-0.02298907097421664,-0.022869405796791187,-0.003685028536677431,0.008736018583354335,0.01757212863393648,-0.02239459449330022,-0.029356467419554236,0.04728136032165151,0.017354317324278785
COL9A2,-0.017457335732447413,0.018242248610661812,-0.023425350822779453,0.042794588171199584,0.05842487442930526,-0.010303485510564281,0.10352271565417939,-0.05449452192881933,-0.037111585699975115
DLL3,0.005944584365329234,0.03742631020944284,0.023336594000312325,-0.011377484337618718,0.08003653143395854,0.07090938210507518,0.16121911103774755,-0.015924593818556845,-0.04388171809440741
FGF5,,-0.018852138119340757,,-0.01840927136110739,-0.002544243069524415,,,,
LIN7C,0.01492723566997584,0.08461770896974265,0.05855371251619123,-0.03861560144397538,0.03830015998537407,-0.0031197039532810254,-0.006198809752526829,0.0701899415634237,-0.03422203593895299
GDF7,-0.00611763645329543,0.015486887523703877,0.019978533610290977,0.0318454918783204,,,0.011813206078407532,0.1927795238464744,-0.018184890897362124
PSPN,-0.0031647586110950376,0.04740740727034542,-0.01646533201282093,0.03525138913909116,-0.03626104934534442,0.03116600704814368,0.09301420112769618,-0.014276059296023451,0.036950428195391405
ANGPT1,0.005796496199451251,0.11910538325888818,0.05135756736839181,0.06044586192854422,0.05742789148629735,0.020721547321777757,0.035216755592323304,0.005013646441578505,0.048862145109367185
PNOC,0.011605626279535828,-0.07778145336970518,0.08759940401042288,-0.006875123679520726,-0.012410597833489367,,0.0074166421240165524,,-0.02155893088815662
L1CAM,-0.02652722259410549,-0.08965032381623038,0.04713365500216169,0.06019605954565611,0.03725923582541977,0.04409305556360962,-0.14011458719788528,-0.03624619833625423,-0.024936075268101363
APOA1,0.049498354572183,0.008437422562822688,-0.004667109300293782,0.022465784046550592,0.003544149947378972,0.03321875057328044,0.0901194184333706,-0.03132087495286311,0.011508494006455174
PSEN1,0.04194855188344254,0.06657622494715623,0.019663390325209855,-0.0048950194519171075,-0.008737813470911678,0.0271419900875342,0.017261928861645005,-0.019136255306913024,0.03444925481154711
CALM2,-0.005639211699414082,-0.11152910750100112,0.03743316934497444,0.05488192514087445,0.017515172838574972,0.021591291012648547,0.018375519873233822,-0.04305957975705776,0.1051853274274937
CLEC2B,0.04786503621837108,0.05971114107852137,-0.050020251210407776,-0.054274346850140175,0.0002312852725032984,-0.015201380448322194,0.02505961868846749,0.01899860182214034,-0.014200036467719102
NTNG1,0.04992417448937326,-0.026788063256243028,0.04779305365313203,0.02853100348914903,0.10920490839559702,0.00014036488355410447,0.05024352576149422,-0.05878533254252125,-0.005437981297956143
LRIG1,0.017105470548936807,0.036938942772532714,-0.04101140616049274,0.02556526348698871,-0.02691614178290877,0.03144362443016259,0.13802720515069566,-0.029685404229199557,-0.0663532053080075
CPAMD8,-0.02507735613917308,-0.017054295985189948,0.06464238107435674,0.03633910821500595,,,-0.026688743416280906,-0.04552193098818764,
GHRL,0.07120994869109024,0.029523847233942184,-0.02484129811428693,0.006093023457408054,,,,0.05153384294700051,-0.01967049012551803
NPY,-0.022662338741171677,-0.030343244424039163,-0.016097183133435458,0.023126159319026823,,-0.025377130767172084,0.033545582052234256,0.02148472268158726,0.03440709220347095
MMP2,-0.05930020420424163,0.11027256889272964,0.02352677746132895,0.0059265181041398525,-0.05081021336462385,-0.002691913733738108,0.019651784892908395,-0.01649095433426876,0.018769979996087593
PPY,-0.02104688993880348,,0.01796555580838081,,-0.011479249578630737,0.010056227234815298,0.018399813727555718,,0.0005094547783962832
ALKAL2,0.02115615842683692,-0.019336735110577853,-0.008564398523506716,0.0246773538239183,0.01491462278426465,-0.005849880475802674,-0.02020174001808725,-0.04005340053024528,-0.025590618176111815
CSF1,-0.0031595791061193854,0.05062576335943066,0.030269373114009304,-0.023372114954257475,0.013609868547484468,0.011643739415664385,-0.03863813149752723,0.022805231283542945,0.04120627267577056
SEMA4C,0.007943396497052085,-0.023713164474017324,0.014624298549576956,0.08649930956456776,0.028832106852584367,0.09083909144427145,0.013910520367546957,-0.020008566190938968,-0.014075904412508666
ICAM2,-0.03436733804347938,0.08302974764495777,-2.5102006416136066e-05,0.07220403275567888,0.01709722995180386,0.006704092426522398,0.009424184232664517,0.0022053167172740498,0.0011039034204382262
SYTL3,0.06420388728179605,0.0538947351149697,-0.04006194968536613,0.008578404497909019,-0.018709922304646805,-0.02257409871218215,0.014484408522655636,0.0028507280511771114,0.026881506582537018
IL1A,0.011872228379753434,0.06549512945320846,0.008259793286387335,0.11559112259799756,,-0.016291492894442587,0.019157468796158143,-0.043903363897676274,-0.029005832632756964
HLA-G,0.10991919089026225,,,,,0.1145393019006689,0.009682282141999598,,0.01269004614764515
PGF,-0.012118514742762508,0.03287398243364489,0.00605211850667503,-0.021939162623812156,0.03002549487725317,-0.033025557879973334,0.07932384837422021,0.030330774333337123,0.07288902301549127
LGALS8,0.0031583029511152265,0.031446587167726074,-0.0022199854214183224,-0.025153947917982086,-0.009719675255010466,0.023695825861377095,0.020835103187654858,-0.03032877167206401,0.013819037031811946
DKK3,-0.07845218686802558,-0.12331366165850564,-0.012814358634549857,0.014713626100229835,-0.008306706636458518,0.008661431640218183,0.11663896337615869,-0.023982272361321198,0.01739839971974791
COL16A1,0.018719676679814844,-0.04273519875250607,-0.06779796931993912,-0.02142648496220531,0.03855063122590713,-0.004735785465679598,0.0486989922867948,-0.07040890816622696,-0.04197318449451557
TPH1,0.009817795746342858,-0.020273255250222676,-0.008732174850068138,,,0.05042084709643751,0.021612058371975804,-0.0314508041581181,-0.000987959937665165
TNC,0.053594617485312995,0.10172081876993165,-0.05044426258230841,0.0103998947804867,-0.05374548153639879,0.018069670742543734,-0.07534528763136832,0.05610098742911131,0.055709042381474116
TNFSF9,-0.0116008822382096,-0.04576494297038054,0.04812046480049502,-0.015227775372175185,-0.012988314261035739,-0.024501472230658884,0.01672100155004522,-0.03209146486862685,-0.02810377119308146
C4A,,,-0.01927125312075321,-0.022154222314572796,0.04332967683904393,-0.020198797000636436,,-0.030930466093098106,-0.018376680507634042
CNTN2,-0.03906099366558763,0.02081904795807285,0.019575182713803686,-0.0040695179503299535,-0.014413924914910996,0.08883757047737639,0.10243457160427698,0.037781835609991696,0.009827377902379848
F7,0.03493865618757631,-0.01705428607266263,,,-0.012410599575005874,0.1499428305105728,,,-0.01818489265579664
LUM,-0.009552757944857607,0.08001380628155634,-0.02375187902361073,-0.028030573235079632,-0.024099258910879724,-0.06959064447233022,0.10893447932739024,0.030774610784868834,0.07913290257604298
BTC,0.014579721137410458,,,0.012840987751067493,,-0.018411686882128853,-0.019749917259152962,-0.02653950721602207,0.0033821275850695527
APOC1,0.017371647587220172,0.08084134020328453,-0.0014955313876779974,0.025829847535668204,-0.004161988613233177,0.010734526668894982,0.011640923130972543,0.058666266342648966,0.049978318965523266
PKM,0.020389041806007913,-0.009421643584931005,-0.0346931445752231,0.048857917490795336,0.05957873480105111,0.04972489465780884,-0.11156119315170938,-0.046837545008198644,-0.0027721062176655708
TNF,-0.021576572715843994,-0.009283810691150023,-0.031208275853312813,0.05155219567199895,0.06999063109309264,-0.017870359313490278,-0.01289471382738007,,
GNAS,0.008380515702405132,-0.06912800116742594,-0.018637346559928093,-0.008513211114357988,-0.07983960382576455,-0.029894096464548166,-0.013551340175578788,-0.05182108178485462,0.04687156791252836
BMP8B,0.025275815755168757,0.04241011426327326,-0.01391311907707569,-0.0298449448079329,0.023777942994601876,0.018224331958526768,-0.03618628022591125,0.049559973781873046,-0.01334303621014776
LIPH,0.15467865148708784,,0.019273694522756794,,,0.07509697913242237,0.07511870302120252,,0.026380626624170105
CCL28,-0.0025938192027979284,,-0.02392580697685498,-0.027518983836036397,,,,-0.021380327423171416,
PTPN11,0.007894874573554771,-1.6866991394148237e-05,-0.025181863442853447,0.05170558490112111,-0.006521240503859882,-0.07778888040502577,0.0055191660199171415,0.0838250834230598,-0.03474108285950912
ADAM12,0.06597716236260429,0.08279638563735534,-0.05620964080558249,0.012233433187249761,-0.006033507861383531,-0.02125461728265563,-0.013253259901028117,-0.03426849205920407,0.04699111650116087
EPO,-0.018949208675427893,,-0.016256490397694404,,-0.011284196027541559,0.04678848682813535,-0.0320892294282223,,-0.01739807003000633
EDN3,0.004683095266619932,0.07362737329624862,0.029464945791099567,-0.017044252290691005,,0.004174597558641134,-0.007789303129649541,-0.04156332624859355,0.027488982413836863
CCL22,,,-0.023823736420085957,,,-0.022300320282650384,-0.029345108975947012,0.012233279028329588,-0.0152660490665895
CCL2,0.03517917081276294,0.02540628469304188,-0.024535981544848113,0.007368107596855914,0.07574444956684166,-0.01664320227732494,0.009097546191300496,-0.008557580754600181,-0.011943481442997205
DSCAM,0.02678552854498236,0.019040387973503353,0.04348524076217548,-0.011650920539445726,0.1649666084646579,0.01076018124479164,0.08528377503688138,0.02006602573505624,-0.003743177959001108
GPHA2,-0.015717980957914032,,,,,,,,
ANG,0.02432473044544295,0.061351292221066764,-0.009104597576300302,-0.03283791992784117,0.03662605417083557,0.02108151678866996,0.012581463128716691,0.03203689730115594,0.031147300710879542
FBLN2,0.06981901314007775,0.01708712866857201,0.05000273944618078,-0.01569041397373657,0.07852031061919443,-0.0051745032177899445,0.0626729287688859,-0.052441350111402475,-0.008484108441445709
VTN,0.00015840001287986872,0.054058204950005885,0.014996882137645027,,,-0.02252265296100319,0.05151478096775719,,-0.022528152471608453
VEGFA,0.011049273236211375,-0.0007329700781639692,-0.027885363013375585,0.08146313911899007,0.038640591598580735,0.01626704369236675,-0.10313881175557035,-0.02077689273202809,-0.06964976940475649
F10,,-0.013042107413318155,-0.002535955847416899,-0.03023210265237057,0.007851257740579865,,-0.0385381033595584,-0.022961672808603808,-0.004975750689403391
SERPINA1,0.025546770238659366,-0.003838521299076014,-0.04669797696054181,0.012357284989663112,0.023908166309438317,-0.04328298509949014,-0.041105077033216295,-0.02167734080599582,-0.01843007690980724
VWF,0.004718652464479283,0.06485253035382667,-0.018627058845742464,0.04453937170057045,0.008006951008923907,-0.015193132447425409,0.08685254464296145,0.017503150767284117,0.022414382343713426
GDNF,-0.022085576054597798,,,,-0.026605672644971233,-0.03261284693467349,-0.0034855020005851397,,-0.02436257829750193
VASP,0.012750885055743387,0.06189663600625776,-0.008013557966087298,0.009378402911528022,0.026504070906583816,0.00475569038786717,0.029671339490041873,0.05145432937742157,0.014975540711868726
ADAM15,0.0418046189492968,0.013811202414311241,-0.007252190304170877,0.018699534450238406,0.0016571244778918394,0.02879821097334295,-0.003240931060637706,-0.036961166728772914,-0.0035673643776039914
WNT2,-0.024668923492781752,0.00027932404288770116,,-0.03116728211714693,,-0.024440457179147924,-0.019552933486031022,,-0.0030624870509121838
CALCB,,-0.01885213791446844,,-0.020865548125074147,,0.16163371352550263,0.025321292799663782,,-0.027176542191483324
OLFM2,0.015266698013875512,-0.04819281941092913,-0.021280713536115346,-0.035553475053935454,0.07055128384912618,0.03676290062175414,0.05557917775416244,0.058655192501396454,-0.001063121498733115
MFAP2,0.0022188099214070878,0.09436153727662273,-0.03554849263921061,-0.024256570723122633,0.024537599267932298,-0.042582799774714825,0.06534664926545193,0.004808690705583229,0.012667416973015502
HLA-C,0.05503606560124994,0.10399009704054546,0.04095564933051508,-0.00703136419533847,0.06538094256307925,0.020792098300996383,-0.04498947149997977,-0.04471505023044764,0.023353013788875207
THBS1,0.024665821654016526,0.044150924869958585,-0.024677600471642986,-0.025529418191632184,0.016962179476025775,-0.03850128641753125,0.02532290511081682,0.022319678315903032,0.024378867169990538
HSPA4,-0.0263667437796978,0.015518609323717219,0.010958417611106391,0.009292766857464343,0.07280533453239357,0.02711614519702784,-0.042625073085703374,0.0013676004521474441,-0.006399385868313553
LMAN1,0.04936233361896924,0.06285231172921643,-0.0354988264221008,0.04837167752762051,0.01874646472023235,-0.024289810923334352,-0.037843734537983585,0.009204482880884511,-0.02342165101222062
LYPD3,-0.021513953111210935,0.03793652527012745,-0.02276039414520723,-0.025108037171831042,0.06360775880954965,-0.029815009612017197,0.009357981981834174,,-0.027709610633703065
APOE,-0.030098764944640165,0.07433477553809537,0.019634055284644236,0.046873372497116324,-0.0396835903983899,-0.008535132193540072,0.03638554388928229,-0.01060005187239715,0.007531498657397813
SOSTDC1,-0.03176927062561728,-0.004552257902875395,0.020710742850560127,-0.028591978699444333,,0.0025241039099187586,-0.039141057866857454,,0.005565189508100082
ANXA1,0.026720006075125848,0.07052788647977395,0.008524289406057336,0.04971992632580522,0.01513985669399433,0.011584730956432785,0.023433669145864023,-0.02342925835702467,-0.012060945495684004
WNT2B,-0.02626014705724008,0.0038757586196113674,-0.027260143355099284,0.05907567761832932,-0.01940382933169327,-0.035106856958566704,0.046016992982125866,-0.016266941754996392,-0.009780480761726208
AMH,-0.01338267681397034,0.06110119176662269,0.04817446078365389,,-0.027703285538962535,0.07318057972855314,0.05131764608798309,-0.021380324696725198,-0.06943185311702733
GDF10,-0.016322188479135774,-0.030377301916908298,-0.00895271888498722,0.02750500935027252,,0.09850001934931481,0.06908392063800076,0.08383534970430355,0.04738976280131423
EFNB3,0.04234430640695371,-0.07490117081148233,-0.006262526098689723,0.004521814685125356,0.02572522099907551,0.014428240196353708,0.015539852529453193,-0.014579712823875402,0.04103093095073656
LTB,-0.02779596553361552,0.01846854733231301,0.052495023531894315,0.053249704647576515,-0.004763822999848734,0.027311709397452016,0.10934246992617704,-0.027670457383853844,0.029980475395601402
ANGPT2,-0.05555901189470228,0.11848557452393857,-0.04296212545599622,0.007623040535811504,0.009592339730408137,-0.004870983751798284,0.07487738092200451,0.010632461401735072,-0.026591791248603527
NRTN,,,,,,,,-0.00806341917079801,-0.015491732992219762
ADAM17,-0.0034954240527125062,0.06686322245558354,0.009029573803630698,0.01015152584838996,-0.012418444288321409,-0.033185490828029546,-0.058346115684743294,-0.030044393354664228,0.03512207083452214
LRPAP1,0.032451177263529855,0.05216277030715272,0.03902018135427586,0.041067274849228966,0.0018665037003878831,0.001123637740780856,0.09573811358438718,-0.013909454594932815,0.026315958091151663
NID1,-0.044610001624230546,0.07447487779889181,-0.03383606031593381,0.05299359213020728,-0.023541505105917987,-0.04373038958474914,-0.001527002257556985,0.02504681528136899,0.045363675170662074
MST1,0.06956683309309193,-0.005077250957573729,0.017834530643280864,0.0023990591491336566,0.10441327879622478,0.0661537685472332,0.04045426647376699,-0.013417128049939003,0.013756979947054557
CCL14,,,,,-0.017405923336353005,,,,
IL13,,0.0642708687425412,,,,,,,
DCN,0.0018944121871097416,0.04284623866342322,-0.017996576372908187,-0.05953910736398817,0.022113746485393427,-0.039493067456989064,0.07907116045349437,-0.006151179482482635,0.06833813245224882
IGFL2,,,0.20075002457084626,,,,-0.03179508373468957,,
COL7A1,0.005218160073204562,0.08558609715301818,-0.062045932428421956,0.03960465425170306,-0.017506491011450076,-0.03683777528238477,0.005492425347529582,-0.0459232981583401,0.017634859046161723
CALR,0.04158342800939165,0.10358975924601073,-0.03205149771155908,0.023586600358904395,0.02848792001320191,-0.07725072265599611,-0.08758837868688679,0.02077660302984959,0.04939809716841007
PIGA,0.06861067570589041,-0.0007052929135640205,0.027540544949755795,0.028115990621669393,0.03040557940978843,0.012618123405552609,0.032316033564633494,-0.0031060486633734947,-0.043773664037410884
CD200,-0.011696521455932807,-0.021915479013638422,0.02866151934477286,0.023228256918368505,-0.04334581253691033,-0.038859557949070506,0.014067194862525837,-0.0993119713993811,-0.03639894784722068
GRP,0.05518944692762444,,-0.029920955536022528,-0.023076832103883876,,,0.10502421916927257,-0.029529682485783738,-0.016991898963053635
CDH1,-0.021111868229844292,0.06413725349473517,-0.03117401556664354,0.016829269757878056,,0.03590072577669932,0.04044671195237715,0.011378666868313249,0.009732914950482539
LPL,-0.05346485636313494,0.08598573706869712,-0.057171778650166004,0.02462651888315896,0.0026239920813918203,0.08979489364323397,0.15564121269053274,0.01904913126553836,0.010174460628828996
SEMA5A,0.0638587254305314,0.09024745164077008,-0.02468978358428232,0.009442569990605772,0.027276636024317773,0.03412365853816927,0.07107765096124101,-0.09129799864446245,-0.020862688606983915
SEMA7A,0.057612885444705775,0.009690587791713,-0.04088666762730811,0.036591232805331185,0.021633488566428258,0.027833571844084186,-0.05080992357983606,-0.05315776705436133,0.011353060086610594
SEMA4G,-0.021068312972739155,0.0301755640295175,-0.05405531104008396,-0.0008381676112892668,-0.021185674246634114,0.023332220764372243,0.06291630364140008,-0.0013282281035970186,-0.025891075260244433
SEMA3B,-0.023008339670419847,0.0689530884416147,-0.004424097471265142,-0.004403521093399685,-0.014918362653516959,0.0011419585733027223,0.007037428944864119,0.008868473263485959,0.0009838498119778905
RPH3A,0.02804352876647926,-0.11187903030935935,0.05115584473627376,0.025354938435390637,,0.04678405963590417,0.05042910025466848,-0.011913284558719362,-0.03415840918931409
JAG2,-0.027434707648804228,0.02662312593757716,0.007714235422402038,0.0235432197689281,0.0018346908247523852,0.021255440243965425,0.05625828604791501,-0.03824763110000679,-0.03196477014200953
CGN,0.022109626326208796,-0.022571373695241193,-0.0023349540825091056,0.007050276359484983,,0.06615175497240317,0.08416720756512132,-0.056202076079623894,-0.038807661196607016
GDF15,0.020376314430702376,0.08201952816966737,-0.04542145704465863,0.02907973520740814,0.0032665580542393974,0.02914613379402591,-0.004037569548242762,0.00495139730241043,0.06672929976807754
SEMA4F,-0.015573282834573498,-0.07472081540700251,0.027056272587611282,-0.0032130133891236754,0.038116007957398494,0.043932145493137315,0.058331452256318465,0.02495879341531935,0.005105947392142735
NXPH1,-0.020366350501872,0.0185930672641018,0.03438118750943576,0.01232354992381244,,0.10356722802076807,0.09603513893107544,-0.003879601601240196,-0.013291641521023443
ARF1,0.0908424494926947,0.009501143977203134,-0.04693523451334905,-0.0034691037522088315,0.04761420752441681,0.0012477312189556806,0.02681510698825875,-0.04254682292134392,-0.041964597552988446
DSC3,-0.01189505706817434,,,,-0.012228179564531063,,,,
EBI3,-0.030970892942257376,0.06873285717663515,-0.05123593071931521,-0.022339796178403988,-0.01687355647298586,3.8243950141639094e-06,0.061366333560087784,-0.021394386837160988,-0.008993461954658487
TIMP1,0.03549280057340639,0.09429644545808114,-0.053751009817403224,0.03500060273431584,-0.004268733043090778,-0.038573607721125364,-0.10589422812997762,-0.02702889072883945,0.024738930321138212
SEMA3C,0.033013098059520386,0.05963132127386502,-0.02265595045529465,-0.04940705251209253,0.03028555072486525,0.016256907846932782,-0.05468530723590205,-0.047812282929475244,0.05669864297406265
GAS6,-0.04010018391957504,0.015474380726689807,0.03691532781770987,0.029142658798859286,0.03993173485335118,-0.016440544993175682,0.018052686287782765,-0.04635611531573132,-0.014314606984391914
MEPE,-0.010075662141413009,-0.030057532767929267,0.055813649795662085,0.037676039238734756,,-0.034099448301761516,-0.01603766085089266,,-0.02622147242291326
SERPINE1,0.029417211920258146,-0.06528611593286886,-0.07708092461139408,-0.00034734348661867646,0.0459125521362396,-0.03798905977941531,-0.07898420372992708,-0.061145534364186974,-0.02450549484895836
RSPO2,-0.03210400441600475,-0.00763127291370738,0.014168704483047133,-0.01257985011874778,,-0.027552567151528644,0.016875891901782125,-0.02909305229151084,-0.003169023897365362
SHBG,-0.015407615027745956,-0.021683584989278713,-0.005585827685157792,-0.02119455343627573,,0.04317026061291521,0.025812568793709204,-0.035726400840579244,-0.02465652582741606
LGALS3BP,0.01654072129820868,0.07876612952511618,0.014225636551441597,0.013604784841633232,-0.009889739406779861,0.04088741804529534,-0.024576270549223463,0.037818576350407744,-0.032640663776437526
LAMB1,0.021370353218830424,0.11493786657871866,-0.0163525839842032,-0.05685511573453203,-0.006867811632400478,0.002627313194415852,-0.0427006016816869,-0.06026335879684753,0.022750252339858706
SPTBN2,-0.057632845246399576,-0.04822852061565657,0.05944757642995079,0.059276669927720446,-0.01110045657070948,-0.0016473995321716816,0.08353394263347452,0.018484106122477185,0.04170111307606752
COL1A2,-0.005595615367004566,0.07448797663271754,-0.024941576325882595,0.025086375794521096,-0.04419105307378383,-0.09480196962748981,0.016692271777955354,-0.04022570658688374,0.08723182200713432
DEFB1,,,-0.0005478684542438681,,,,,,
SCT,,,-0.01578093540065824,,,,,,
WNT11,0.023773187701721307,-0.018605396216573387,,,0.007867859016823922,-0.01744192931931595,0.10466101844741882,,-0.025081615605556863
LGALS1,0.0023244022372010216,0.04452115352465735,0.012352195063674685,0.056430046319181845,-0.019619988493126683,-0.02280648332114158,-0.10765484755158485,-0.016751658052300472,0.015084585121456669
BCAN,-0.018762548026368685,0.13172778676828276,0.050740529309322435,0.08690974146865796,-0.016045082928306434,0.02068355444893272,0.12813852088724031,-0.0748040216602308,-0.030583497051385126
ANOS1,0.0020937771774983973,0.09347043309769267,0.03619484419510155,0.02793558761113396,0.028343019903791993,0.003089678174506504,0.06177428727783027,-0.0012930626574350196,-0.008701012990572392
EDA,-0.01248186344196818,0.04554401405225673,-0.013022705126621787,-0.025934070358539205,0.09654265366997247,0.004398883417311075,0.20172995586022016,0.01521244708988984,-0.03488531638353521
FGF22,-0.01774925859504887,-0.01705429373234131,,0.0019408204496044208,,-0.03004194441058112,-0.03028526009382149,-0.028911630353911845,0.03066055480394207
SHANK1,0.02420347108527733,-0.0162260773270301,-0.023098918075732083,-0.034690928544813183,,-0.035315907296090264,0.006106531465897079,,0.025255767908890763
NPVF,,,,,,0.07501337444545128,-0.027375394690496116,,
TGFB1,-0.016762061136051967,-0.036949978135545986,0.08349362032929122,-0.03908293695126422,0.019329453109746493,-0.045910012741203536,0.026154005507206656,-0.05459222900135152,0.0504461790573003
MSTN,-0.024844243357548246,0.09393512839536979,-0.04169296971529987,,,0.07797030290656733,-0.056299727778727035,-0.01610841564748693,-0.026359732580129403
WNT4,-0.011487901437692214,0.061148147368080656,-0.02424927435557652,-0.032748349012369324,,0.14925919380218608,0.09239391353558263,-0.020828727916647582,0.036155538114242505
TNFSF4,-0.026270727667385415,0.047642530082723775,0.05772025759691585,-0.03531853944635018,-0.022689280108765024,0.03578607849238245,-0.02195494691010031,-0.03208967818841988,-0.021295679879399485
NTN1,-0.006383361567971279,0.058639838803906885,-0.02479800202086215,-0.011998045982654148,-0.0004738057368819903,0.04004835476262031,0.0959099664239366,0.017783720938819546,-0.0438871211266208
CXCL12,0.00893061461885452,0.07201475222191267,0.02588667512309181,-0.05418156891479629,0.05406726315340855,-0.030292587865751293,0.054391806172508404,0.038349338742312174,0.08711375903334984
GNRH1,0.04806965912289149,0.010644320220131544,-0.020654507385769034,0.06476275508402629,0.0034123846398199887,0.170606140890725,0.04630693615176069,-0.02110618900425601,-0.024509940820296783
FGF8,,,,,,0.04910979359358878,0.006994915674613397,,-0.031344682160852205
RIMS1,-0.0015172412008279343,-0.025032912083839315,0.029748075432169577,-0.0038411546658476004,,0.04594954949516291,-0.041906417724264906,-0.04269696622816979,0.022104639564901954
FGF14,0.10603277533722072,0.03272460679767788,0.08419932071406883,0.03644998216070071,,-0.005731810673934546,0.04453034595812258,-0.045829980710379706,0.051903538910557975
IGF1,-0.010177544649604504,0.01302767435053001,-0.01246108386089071,-0.016833287329124758,0.05843129219578361,-0.030216402355091723,0.044480091334502356,0.007278932070099752,0.10241668997262562
TNFSF10,-0.0033570792585705337,0.04824637555401285,0.025637743961878526,-0.060255595100377785,0.010200447591513655,-0.04174123528847724,0.05841366275742686,0.019222668151897628,0.043342277175526855
GDF5,-0.017611343469541463,0.024756477134939253,,-0.01383104912486716,-0.021454541770336795,0.05382001921149208,0.08377280127536821,-0.042967275586458464,-0.04502111085258807
CHAD,,,,,,-0.04496666472070205,-0.02002790429719929,-0.023467065463927194,0.038752338982303666
RGMA,-0.03710607889532493,0.10819213297489652,-0.043629829579833704,-0.043347858636781346,0.08935253489015062,0.05926718579582192,0.0825290112584867,0.006945607010921604,-0.02484924553681058
WNT16,0.0001897329879574571,-0.007925669358694081,0.08859355660484368,0.0006404405667334086,-0.01594853939120555,,,-0.0193862950696076,-0.015491730947469152
CX3CL1,0.03360795990177778,-0.031455052938744454,-0.037012053827485576,0.014381458001056908,0.022690223725367335,0.00828588522646838,0.008785202838765455,-0.01120515813406905,0.044418935615253084
FGF1,-0.01956184392634943,0.01078548324002408,-0.011769466398726131,0.0335493602728578,-0.023653338954843832,0.050379693764026526,0.06521451192662192,0.012945164917574942,-0.088968572752944
ALOX5AP,0.07030263032012112,0.07013199884868475,0.011037834812836751,-0.019840485360908794,0.01857197250583717,0.05137552670504418,-0.08211860148116717,-0.007646951330591868,0.08127874837509141
IL1RN,0.09515292958469891,-0.017321965880316405,-0.02263522980731462,-0.04314790695797361,0.013815755196792009,-0.04195252239384468,0.008079816669788747,,-0.04316447020633841
PCSK9,,,,,-0.021994817379704053,-0.019451723589576364,-0.01519410117582929,,-0.015037144918413162
NPW,,,0.004334778723121225,,-0.016464072176340164,0.01897958111567978,0.030019943314791783,-0.021651235154110455,-0.038067417645899326
CXCL9,-0.04150128004641031,0.015740730392285646,0.005603897449845558,0.07685420797780279,0.05258109884553584,,,-0.025397278017414544,
ANGPTL4,0.010405593745631363,-0.042885976401677434,0.0015210526097323115,0.054031552976421954,0.05101285047575219,-0.011782223833846259,-0.10426823466188131,-0.018535276852804664,0.0493708899885798
CCL11,,,,,0.02934997695147196,,,,
UCN2,,0.02333379564362412,-0.024727173680598576,,-0.03570201811829091,0.016507397780219722,0.05494696443532611,,-0.016991898963053635
OBP2A,,,,,-0.013279892868625156,,,,
COL4A3,0.006378947883214709,,-0.02300520830152718,,,,-0.022968455966207564,-0.006540313357879226,-0.023765098055835845
NRG3,-0.0436386929026055,-0.07029565163063796,0.025680084232671343,0.1271954052493891,,-0.01315523194423089,0.08736131512245698,-0.06922604738036785,0.04566641287957757
IL23A,-0.018819312557052593,0.09966361161462882,,,,-0.01945171680399999,0.03216057896075213,,
COLQ,-0.020929232898356482,-0.018142593854670225,0.03177250639657799,0.0029705669829527934,-0.00951021941757568,0.05698551905039685,0.10093369206328183,-0.037320258171399605,-0.044045550827114026
SCGB1A1,,,,,,,0.11692114876776678,,-0.017398069925284712
TNFSF12,0.03936733577234618,0.022076295437155398,-0.004569978654845456,-0.012127001408743409,0.018997514399282683,0.01688302237747656,0.0469142135631827,-0.046599246892285166,-0.019874148002480226
DKK2,-0.019712329325370107,-0.032690035104229465,-0.014116815970451571,-0.024871264844826303,-0.02634690211895067,0.05097433043926668,,,-0.02002594305049434
FYN,0.030256613328532692,0.09955055346820993,0.023864344841532194,0.09637405343413982,0.06711708596058048,0.04088860252980928,0.09788127773966429,-0.01956008032978413,-0.028944545287466813
ACE,-0.01807784299022973,0.13035434677129457,-0.018674262725369355,0.015568126648034504,0.03921873116339299,-0.02152993845202603,0.1091883726101236,-0.004019777248531132,0.06618856855926553
IL18,-0.006725186823347388,0.08878037762747813,0.052026041279681766,0.0015913995598777052,0.009588896789305724,-0.011306503281520369,0.0731919924352668,0.03756012340488251,-0.016435197960848205
PPBP,,,,,-0.012410595246094763,-0.02381675658390918,-0.03435956864299274,-0.024927334394889502,
CCL27,-0.012481863525824628,0.05655580472728941,-0.03546624248923975,-0.026737047410963537,,0.05316590434080987,0.030934191730160664,0.08738602523694862,-0.02135362066487712
SERPING1,-0.00039576115275366476,0.07185543043767963,0.03776496605804715,0.005679460501522118,0.0267669169370262,0.0031546639764588576,0.021384331656955732,-0.012131256665371409,-0.0329295247624987
AZGP1,0.0038155969167582827,-0.0005713307644157996,0.07364552423732945,0.010342315201972091,,0.028572326495354655,0.008087319172263106,0.022624244335582567,-0.037613163228127244
INHA,0.004487547628596563,0.07687393998554277,0.02340308877770512,-0.02204933188649574,0.06365407541475943,-0.016633722415552207,0.049248310422968636,-0.021651235025778457,0.02966161648653771
SEMA3G,0.03503378060216314,0.04109782486714409,0.006662381774481824,-0.03023211274914538,-0.018303907356740833,,,-0.01997492636088283,0.036866779669213486
OXT,,,,,,,,,0.037074046581388895
COL6A1,0.02679776064552782,0.06020479179171405,-0.076028951258699,-0.010810777280025288,-0.037545486018499205,0.000938240873505664,-0.05618543182045035,0.012344680544152624,0.01924634015609582
FGF17,0.04329531801206527,0.0010039965027184568,-0.002521063105347488,-0.024248874947316246,-0.014098634948630418,0.08108704677429122,0.1217530560561164,,-0.04017927599217108
TNFSF8,,0.1356650813146924,-0.0065730238223302975,,,0.009249714754157036,-0.0317950803138843,-0.019386302606413833,-0.015491732992219762
FGF20,0.029279981043484518,0.04153792112194053,-0.020149033039967214,-0.025821913608291468,,0.020094431263349994,0.07343346947654009,-0.040036698198147626,0.006353250818151546
ICAM3,-0.01782022134720259,0.03548128358248844,-0.006475909490958421,0.10016080463414148,0.05010941215432997,0.08769232596782389,0.045618222540183134,0.023389869697192766,-0.01971281783220491
LAMA4,-0.0025124333729036165,0.1529729756705652,-0.011197994662484704,0.1140332017824578,0.025399396522898517,-0.0260574687969468,0.022337877170848966,0.012789084545635833,0.07682400004623419
INHBE,,,,,-0.016325499941887037,,,,
DLL4,-0.018527788671552435,0.008861140672623028,0.0553346495869049,-0.03046822457509486,0.02751675474448928,0.011898262542907337,0.046287489580207106,0.003688162432190656,0.022422484733286875
SEMA3A,-0.011924767627694574,0.044660794145767485,0.04004655924863869,-0.024485903930740543,0.008382240799022386,0.059852546041235376,0.04750757499265962,-0.005773198751138187,-0.028258704136782276
RLN2,,-0.022245787670808436,-0.020621292607865237,-0.028281638358089216,,0.0767113990580066,,-0.03227949118157305,-0.016991897089338303
C5,0.016779708437172598,0.07891108214127278,-0.00759464726778357,-0.04506701996545505,-0.019473072858455592,-0.011873875630498375,0.016743412631123493,-0.03522320519765003,0.010394140670729503
COMP,,,,,-0.01928435386582089,,,-0.02321561720613467,
EDN2,-0.014102527397722964,0.040672974794664946,-0.02504112117752348,,0.07722273440145534,,,,
C1QA,0.019986024007159372,0.029912986123365026,-0.022913935522435157,-0.005315059902198134,0.08501560197441621,-0.036796267639339166,-0.05285323669425725,-0.00042747736526721285,0.03658463729524664
UTS2B,0.0767167848545591,,-0.017824889929000158,,,,,,
COL9A3,-0.0036686860888501226,0.04891214022302687,-0.039407710245652317,0.013955356651619077,-0.003037906287371709,0.10262054278249579,0.09926736104435042,0.06048627819309998,-0.040871440214315234
DLK1,,,0.04216838563237096,,0.038849263576267744,,,,
HGF,0.03226629445883284,0.020339125535733058,0.04907514927494406,-0.02765043937124095,0.05088563494379689,0.03133768767505459,0.029261454073982854,-0.055295130473881855,-0.049581150062731935
GIP,,,,,0.07106872172132758,,,,
P4HB,0.04688571457232862,0.08731160946226971,-0.07861500581104638,-0.06877078050014583,0.0194796694714269,-0.0648160173443598,-0.09611277744194438,-0.008112276477713187,-0.020346524894355237
ADCYAP1,0.0072344146012048895,-0.03950993524061862,0.01697031309876388,-0.004291145940577832,,0.042077579622653793,-0.006922698926282592,0.017463984320549443,0.053111303148693154
GREM1,-0.0027633305364139203,0.0996577306681797,0.06913386990540031,0.06023791811459965,-0.010852021614383084,0.04701392599818087,0.012803978534817316,0.019344437947887632,-0.025354702359050664
EGF,-0.05030067876258737,0.06657684092142131,0.08372253778024401,0.0021880176050640696,-0.016873550788113083,-0.021849454488560467,-0.027712751566101534,-0.04239418947400579,-0.021393547357688423
VEGFB,0.05118660942313601,0.06773350556197558,-0.03107925532684568,0.02269157388065399,-0.01019290726649261,-0.01665459432696875,-0.0013058397450331505,-0.046262795405591986,0.0009184135405081808
FARP2,0.02857527364594281,0.026813611871064687,-0.05408269477331044,-0.02451216319682185,0.015145985093434913,0.022299081389667002,0.022153408346641906,0.02834957570782712,0.03085129875994288
BMP3,,,,-0.0018279378714522894,,,,,
IHH,,,,,,-0.023392643322406627,-0.03380496276534306,,-0.01678534650509286
LAMA2,-0.00988992488130895,0.041977593973589106,-0.01736435568037044,0.08422338102759369,0.0660580517718855,-0.014817230866715825,0.0991293917882793,-0.03155100271595327,-0.0013540514982072077
SERPINC1,,,-0.0043826240906721095,,,,-0.012144531770823613,,-0.016576374529981827
NRG1,-0.026173001770540202,-0.03815234179050382,0.023272648035550014,0.067248275817355,0.022597382680690833,0.009519836604551387,0.01634018689439723,,0.05903157587302665
SPINK1,0.08654566115548798,,,,-0.004494073614532986,0.05690453447549567,0.022044288120723506,,-0.020375700029159602
EFEMP2,0.03810264435147891,0.08107082179155312,-0.033238960078373715,0.045243337267885333,0.004513044884283896,-0.009512652778023638,-0.04417098106313175,-0.0591325276002821,0.011441581645286726
SELPLG,0.06298700446862385,0.09686266258224636,0.024860479873660635,-0.04722799395031402,0.04332007344354527,0.04227941048821162,0.02647939928906511,0.008862988348908269,0.014955805835569009
GDF6,0.03440486435876792,0.04991233353296355,,,,0.03482960297603584,0.02563930506535784,,-0.019393714329982527
HLA-E,0.03820500115574597,0.08343470470407767,0.04651355278364106,0.009000309766718515,-0.004820420405037704,-0.06978030569444557,-0.04937783688630774,-0.009974560185324482,0.052137683076837554
PTN,0.0199243071982591,0.11627561668877034,-0.06541456241299909,0.06303179698180136,-0.06813115700832661,0.07887209559603812,0.014106549939523639,-0.05780136381791283,0.004214422433102989
CD274,0.048701771141910946,0.06645836122204937,-0.0064767597765541625,0.012201605583743563,0.04259041974199079,-0.02035766148205441,-0.02729366062883,-0.018219325188784354,-0.022721451631187536
CD14,0.05957654956171278,0.018816309290411726,-0.047527293186007416,0.046121177768654265,0.0626999941380885,-0.01190818719542151,-0.04416556025666121,-0.016631068816143946,0.07276327011643718
SFTPD,0.006750520474107835,,0.045309543299609255,,,-0.02620136174984714,0.018994246047859906,-0.015714908332743284,0.016300479363597672
SLIT1,-0.005109036043005814,-0.037296235666423504,-0.031986386690715594,0.056591487942561115,0.03375602143386381,0.012639325292423861,0.002827871778436296,0.031299122083503744,-0.020721489944199152
CNTF,,-0.02327474608882894,-0.016256488843334846,0.034004774606900136,,,,-0.01997493424311523,-0.016991898963053635
BST1,-0.002025164575563536,0.10044550148752747,0.011819445889568946,0.02342497293028281,0.046380462482085834,-0.02186193061151873,0.02240893264041039,-0.02776182046082274,0.0242394897039659
AGTRAP,0.07994756482974337,0.07448542146055111,0.04899281449505694,-0.003590798243342112,0.03650737221880741,-0.015889242676492863,0.02528218946641483,-0.04532882540988519,0.03365940852503257
LAMC1,0.02489952352364728,0.1234262834021157,-0.06712177047379478,0.04239912571582203,0.01628279017221016,-0.022841008408797693,-0.00657927711287959,-0.02447263863367676,0.053809855249592156
COL6A3,-0.04309404055171986,-0.03499846268003697,0.01754686898543652,-0.011555349980769607,-0.009289229593722767,-0.0491565207472885,0.02299589427814654,-0.05581994774776224,0.030656977305087003
FN1,0.040516154241973044,0.10904663936895444,-0.055828560121605114,-0.012752862566743043,-0.03991671027952762,-0.08097012517157477,-0.03332647076819315,0.035245331330165414,0.05523357632897845
MIF,0.015146459307263186,-0.007504633354274697,-0.04066964494537834,-0.06516668751076027,-0.03898761008828819,0.04338359461351239,-0.026210520853877636,-0.010472565396383084,0.009899046239718734
JAG1,-0.001270934005460992,0.15588776704606716,-0.006866522422955107,0.020808902732718904,0.01914498428708578,-0.06386522351185614,-0.03366688178744481,-0.006218846494770528,0.015226776866085173
NID2,0.05892465291729546,0.10423998681712447,0.02717741206004016,0.17901611492896924,0.017007957869688603,-0.04526881521655628,0.02996549194644899,-0.011448497955459866,0.013367397064617832
EFNB1,-0.003465221528860031,0.09576813671450377,0.02511176829960725,0.004893668642367477,0.02315391685603266,0.037649240906103915,0.03213094940076538,0.03964895486146344,0.0020304447802371385
COL4A2,-0.011025575028613663,0.11218492555998373,-0.03958237954503091,-0.038269693726977,0.049854287190391006,-0.059985751966702305,0.03066784596551403,-0.02006021294013963,0.0815152026242717
SPP1,0.03348564691790178,0.0673862716693273,-0.002020987358106251,0.04476429773030775,0.021154168416082215,0.025084546060109635,-0.09540908122517619,-0.0034866815324681166,0.07462865292825042
PODXL2,-0.019147214407680403,-0.03116438741378066,-0.009071376367449167,0.07964733129478689,0.11856929065062437,0.012009791510716364,0.06152131534078892,-0.008377347868457827,0.00958830453900935
FGF9,-0.03759908326525528,-0.054027043937672485,0.020759216929835306,-0.011192531612218084,,0.04768085763916166,0.038099365295511264,,0.009015441904725764
ITIH2,-0.009818181353206007,-0.005674872634719239,,-0.018366160652969973,,-0.005118732927249174,0.0014263184603755883,0.048441140860683726,0.005727620300291362
ADAM10,0.002845785625693804,0.01094967607152722,0.011248236532546422,0.010694004112219732,0.04130760398925938,-0.030466520180350468,0.03218061480011544,0.039879659290772695,0.027709382998888917
CFH,-0.0100709566098351,0.07305325380215952,-0.028676303879066996,0.0010624173197145142,0.08444384800024296,-0.002926760300491395,0.06759569768531877,-0.045008997280987804,0.01761631445959638
COL4A5,-0.008392386693654172,0.05759797093578863,-0.011916097206405683,0.031042909355745656,-0.013950453521241439,0.05413301958798424,0.11396234307394204,-0.05778462082950332,0.0031220743027258547
LTBP3,0.04675360022211017,0.02160807112954696,0.009025776552668598,-0.009960607078532576,0.05937320917832927,-0.04565740748186551,-0.027641099334943825,-0.04180358244268866,0.014025897308530363
GNB3,0.00950618747317414,0.03239916446524,-0.03995946107236565,0.003611098225994403,-0.04383671309156772,-0.014972539816320666,-0.008325603044114994,0.0288705516599106,-0.04646182611499909
COL6A2,0.02106022076665638,0.09377837721240365,-0.05827330547185353,0.06454961637055613,-0.021613637207382737,-0.023505248719814423,-0.048508807048448635,-0.004477004022760912,0.04699445300054153
GDF9,-0.02542020435602709,0.0676079422170705,-0.029994941115522335,,-0.01805142831875702,0.07445559068135167,0.021984657198203125,-0.02932490518354282,0.0032590543427680947
NCAM1,-0.01667160200865815,-0.05057862246939611,0.05206919389171676,0.08064226410899739,0.02773258593322395,0.011462256432626787,-0.026053711945947345,0.09634123243788591,-0.016446002052797202
APOC2,-0.035165806411036976,0.10724035889359686,0.028518105503082324,0.04001993586801538,0.0034882712580717934,0.003375060713547217,0.05594675100138288,-0.003164469531073074,0.010704937444543301
BST2,0.030305351782490532,0.11617253735333706,0.024260148954933575,0.05335299310460656,0.06731978383671954,0.00815147959842929,0.07602367657206571,-0.006123346369990263,-0.04298027317644991
COL5A1,0.04787904679303829,0.02410584928877818,-0.049550040855830674,-0.05167324554208827,-0.010098633920198814,-0.025822210959950073,-0.043472854327275344,0.0346839571220442,0.048662583707516055
CALM3,0.009496468612995974,-0.10991637507749875,0.06526904326373777,0.031736233519333655,-0.01378395575076982,0.048285367115527215,0.09525189254704272,-0.05493147410126981,0.03328739821668908
THBS2,-0.019785583299166538,0.012003576678666741,-0.0212217223639293,0.023737395588784314,-0.04586155041931883,-0.01990357809722684,0.0343899416797307,0.017100875364535122,-0.017001678270906075
SERPINE2,0.06724117306982288,-0.015800770694508838,-0.04926164625820859,0.03938996589747217,-0.010705030300005714,-0.012326943570618623,-0.05873421113452578,-0.09431931693962016,-0.009932900840963994
EFNB2,-0.03554201592988474,0.07530052743084331,-0.03451681487358757,0.0670661592524632,0.005121712054361424,-0.0028936093740095504,-0.038890063405368124,-0.013178335168065767,-0.035811613782825664
PROK1,-0.007632355023827577,,0.04979167358239461,,,0.07873709516755076,-0.002835617824258717,-0.0199749147449784,-0.015933975088192318
MMP9,0.010988656808307955,0.12247350768105222,-0.027145953506944324,-0.0334064477298801,0.052906920977023174,-0.03256958809848202,-0.02638736010072369,-0.03817045538794889,0.04619386930510365
DMP1,-0.016906333321717062,,,,,,,,
NPPA,0.060550259223861654,0.019968964136163773,0.007080555861519475,-0.022154214969564958,,0.05529309115199356,0.08363361164522387,-0.0066575034701929475,-0.013857526567747962
APOB,,0.06891253251842352,-0.032978099330950035,,,,,-0.021919084832620842,
C4B,,,0.029714228941005012,,-0.013612933925269556,,,0.00019386262177154326,-0.01967049339573152
NTNG2,0.024936484535200035,0.026302316434776155,-0.03294716356883991,0.09357715747801823,0.05052872179107498,0.0633220935640939,-0.013171010523862414,-0.016937767919390813,-0.027223021733581224
LAMA1,0.06144364168018108,0.14653563594332222,-0.031850965297591356,0.026725888374258995,0.022564608728363494,0.05242146938502709,0.04242153564523827,-0.023834756343003423,-0.03654190556079186
UCN,-0.020570502394982305,0.020804519378135503,-0.030946496420677403,0.02434536319067124,-0.029653650920592956,-0.02694787942179248,0.06179248145701356,-0.016532750763011365,0.0041399015146933865
ARTN,0.03787252896813952,-0.02703378924279271,0.013885553110334847,-0.028780085039415322,-0.0017366840803651942,-0.006648680028300081,0.03989645931190862,-0.027639828099681137,-0.030743393439293627
PDGFD,-0.011209159275843763,0.10957168254859495,0.055998427159127555,-0.026999941338276445,0.04199412624657343,0.049280665139068716,0.10038161387485955,0.010406640565688581,0.017705257228902788
EDN1,0.009391736751207146,0.04556278180572158,0.01911153966725263,0.004232021798162222,0.05200093596056951,0.023780791047971754,0.04970461163089168,-0.01461684032093413,0.03132178010251635
ARPC5,0.06160207453670573,0.10148682936301637,-0.023433215939119765,-0.026381977469938866,0.022329554633824425,0.00035164361003555767,-0.010970971762533914,-0.030112395678711264,0.04527443884798259
GSTO1,0.015511139436998568,-0.07452489534182401,-0.014164401766539268,0.058321195910837245,0.02947046992818464,-0.007642874072930483,-0.02965581129551127,-0.028498651914215984,-0.010583445025707475
PROK2,,,,,,-0.015527943493414189,-0.017126701675199838,,
SYK,-0.022398528298608392,-0.04066868668888273,-0.021009521906380457,-0.009732625916197113,0.02873679748674801,-0.008521074080851027,-0.002777149419199381,-0.05345326555159989,0.06258828220462301
ST6GAL1,0.0518844326979449,0.07699119170914027,6.687854767972998e-05,0.021416921684226597,-0.0038169722714601183,0.04953829441969343,0.10325230020689462,-0.016410164801941563,-0.005241662302267972
WNT3,-0.010629328428855866,-0.012576996733124015,-0.020102507871066565,-0.015401041811687067,0.09990287585082631,0.0021795917121915837,0.09198152577647309,-0.04159046749762333,0.03400159179850916
HSP90B1,0.01624750279015372,0.02285153264771891,-0.013543432529728314,0.006970236756325567,0.024060947590086132,-0.06674466395587654,-0.10113079390811952,-0.003293183915936177,-0.018001525799933537
ZP3,-0.024873841997256382,0.05454897257196764,0.006923910691309887,0.017967598323268722,0.06379434891401328,0.06245338356991539,-0.03458963401279026,-0.016093840544735366,0.04123771851484514
ANGPT4,0.038673109274148326,,,,,,,-0.027639826863295327,
NRG2,0.06861903083589811,0.000950733012795075,-0.03238278323912993,-0.03252649797067718,,-0.03630240630695652,-0.010741726794164541,-0.027141738881276765,0.009377795883123586
MELTF,-0.03423873780574101,0.06288305455539245,0.06452021020467187,-0.026962191421215715,-0.015538725710586261,0.021019372748935995,0.08344268669363458,0.011848661866026315,0.016033101765366306
NLGN1,-0.029921579012641558,0.016331641441968883,-0.006058944858478899,0.07505938916466912,0.0026935475850319614,0.04812492121899573,0.020771151536817394,-0.0027563820197499572,-0.017845822318870715
SLIT3,-0.02733557891775568,-0.042310709285949495,0.018835316266417313,-0.053768682321654826,-0.02731673170789266,-0.031178810766415446,0.010087011938812217,0.02978714861641537,0.061240323039296204
CCL8,0.026406334073106122,0.009925779092468924,-0.0032325443155010345,0.005409111521752906,-0.01561583373535634,-0.0344558279634263,-0.0022795408196732694,,-0.03433376532998162
S100A4,0.0413579569873385,0.05407331907818896,-0.024210194020459413,0.0019566434313867866,-0.016960160551212657,-0.020703320828403197,-0.035130073340089704,0.007657396742431292,0.010578183082132528
TNFSF13B,0.056998780922308784,0.041880091400288394,-0.023400623531484817,-0.0008425673739544761,0.024642671576978865,0.03239334308215227,0.02565322161072928,0.0026942310993572282,0.04735852768029146
HSPG2,0.006125758053202313,0.035919634508403554,0.0179101882742882,0.07482210209031126,0.013447731396028841,-0.028733292402531536,0.060608442798321574,0.04843788044532435,0.0874432812658099
FAM3C,0.09055388492771183,0.04944295211632623,-0.03910798898833173,0.005101179221109736,0.01974563909804228,-0.051674102443237016,-0.00048068588754935493,-0.004289093224372353,0.007721547937778779
FLT3LG,0.04788934671296142,0.028228289146873607,0.011176815467700392,-0.013062695011507105,0.021966433605975954,0.025432746927039836,0.15302936831837827,-0.06416809053646509,-0.04316447743050427
A2M,0.028744740063390655,0.12330605541240244,-0.015431558676035607,0.02705126494444002,0.03788729146641406,-0.027733787211133246,0.016313948075433828,0.04115789061679761,0.06237589168896275
VCL,0.05572928574797925,0.0762460737440111,-0.03532373786231094,0.007973862402678956,-0.03565841352695894,-0.03770094584001729,-0.03515076266274969,0.030581343763182205,0.04013503306225705
FGF2,-0.008705948857683594,0.007836202605340641,0.020607060990444112,0.04132764292174766,0.06798551029626212,0.03420868367129032,-0.007449066358186008,0.057228307885480854,0.07322306796350656
AGRP,,,-0.01927125515988623,0.07793774297862954,-0.012765030142963377,0.005279844581194605,-0.02375671385982251,,-0.016364894282750973
CNTN3,0.0155394811121669,-0.055664499509003075,-0.042956651010871566,0.03321098777413629,,0.022105373928400163,0.10605906232822147,-0.03132086597507641,0.03823204387114063
RNASE2,-0.0036729864098116486,0.040271304632862964,0.0015060638533748952,0.01838875778946175,0.13654993421849881,-0.005101995464294653,0.0029454897258688975,0.03541058950195892,0.0394969830300473
ADM2,0.05254314827924799,,,,0.0862212712187066,,,,0.05119955313110926
GAL,-0.011411959810813868,-0.013739350192958261,0.017135731521231316,-0.054972935731608726,-0.014875179061569132,0.0003801168739136446,-0.001744447957927933,,-0.021059244602810043
CXCL6,-0.014102525195099557,,,-0.02647182012367361,,-0.0456696875581268,-0.007549563906779221,,0.041537903500157076
PDGFC,-0.008609688779473218,0.09285261184592934,-0.017879794341358307,0.037637065687070995,0.010902971767791914,0.06302477949326822,0.034523196669197884,-0.059739818028789485,-0.02280309418193123
COL8A2,0.03078118370112278,0.04627230820087422,-0.005817798988683004,-0.009697133474906432,0.04345389055626639,-0.011720913373453098,0.017403431360590086,0.00810437407942509,0.019625830302890473
SPON2,0.019410402455464805,0.10588314618324784,-0.020489966135475685,0.0015983788988762051,0.04457339905562391,-0.027376715356350056,0.08226282639124159,0.024386923451099902,0.0666461721473478
LCN2,,,,,,0.05112115224905306,0.0480696331797901,,
SEMA3D,-0.013405258227989764,0.03305017962570767,-0.011346729034943792,0.14597787698844733,-0.01576010841584891,,,0.03247487126692251,
BMP6,-0.01617310249830429,-0.019810188729486335,-0.01760903655158989,,,0.06332221044442264,0.018881760422515534,0.011807903470521424,-0.03037797245179791
TIMP2,0.044084952603394574,0.06599956309219844,0.05061073824669908,0.030832090502037834,-0.07465781849014692,-0.04323013501613933,-0.036680767344985,-0.07146690680895636,0.0145604754406698
EFNA1,0.00397282815021418,0.0621655276146878,0.011927224575074969,0.08480889389115377,-0.010781141456265896,0.04859205114876612,0.06922699789536677,0.02408344602168178,-0.003910871848455444
S100A12,-0.019334154174962127,,,,-0.015470325749576953,-0.019703677570684273,,-0.0213803166472234,
TFPI,-0.013357849887449112,0.032796374450865445,0.01964498561603364,0.09703692070867191,0.027975253949787986,-0.008873222065191802,0.06250509309099504,0.05500369500591161,0.007279829540818912
GPC3,-0.03730616154255732,0.09136170776336561,0.06489899263170751,0.023386907423564487,-0.01487517927147958,0.021138818749636242,0.10168468647292675,0.002784162842495869,-0.006706188329059758
NMU,0.00908275975930663,0.03341177965462139,,-0.011314218149207609,-0.024053046213171288,0.010613008069260832,0.12405023573274118,,0.07763980300101427
SCGB3A2,-0.022085570177976785,,,,,-0.02230032539634488,-0.032503965145642806,,-0.027444175023844858
LAMB3,0.04049816663309248,-0.10605751832097267,-0.03327658365945438,-0.022685860436122408,0.05657488986149255,-0.034994833281758835,0.04654334656800778,-0.05036486722192203,0.027488369510508915
LGALS9,-0.008461067562698802,0.06480534452615382,0.05957648800847606,0.015911572315130025,0.0560228957418906,0.03254939435975839,-0.004391938824606849,0.03228836702536917,-0.03747678121139446
VIM,0.005565949269440074,0.09329736101404229,-0.07213067551110734,0.0327019624639275,-0.05056037625141038,0.022340583598039348,-0.10600250039314918,-0.03886198438433626,-0.016020070831010473
PLAU,-0.007168918529922867,0.05322240196261523,-0.04623475157241755,-0.01721610190876142,0.07819746724881581,-0.037880898178788605,-0.015397196412654727,-0.038027039636011534,0.02256925595538427
TGFB3,0.0023618977239633194,0.019887095120694944,0.028431240362980417,0.09135115608862611,-0.019238476103262278,0.07525479625827589,0.08069250611843944,-0.011881997365773658,-0.017566764328401565
APLN,-0.012513256938316463,0.09210011642554489,0.006846567577076518,0.007896340852435383,0.01691627063007731,0.08581472859623437,0.013414685955672153,0.06334339873651565,-0.05095464836708248
SHANK2,-0.019449589539607442,-0.054912642729845515,0.024221888239042713,0.05342619764451535,,0.04337461392547865,0.07713865919692674,-0.020828715546973423,-0.04578433942739123
LTF,0.025528988703542192,0.09161324972052055,0.03326314245740191,0.009703193587401121,,0.015832219089341036,0.022186666348464563,-0.02192525020721913,0.005296314025278707
PYY,,,0.027707448164816986,,0.08264173669140668,-0.00983824858286464,-0.022314900014824123,,
PENK,-0.03693018829528657,-0.05670242973862767,0.01654965865765516,-0.01817801835224131,,,,-0.024449346078402406,-0.005144770515142991
CTF1,-0.0055432078140808675,0.12148146030559774,0.016835629172679518,0.014851149282575032,0.03426060282410582,0.02592540917730114,0.0027877652951045027,-0.01674974017491448,-0.03223459972433326
COL3A1,0.01602809936050887,0.09499779282148615,-0.03326539571364658,-0.018775516209772157,-0.056014545859032545,-0.06380294000745033,-0.018796422342496864,-0.004213192749017348,0.08860733180265598
S100A10,0.03001948206052973,0.08530378181115308,-0.009793484706241053,0.014494442568691075,-0.0029440877026938417,0.032849797759540784,-0.08747385171110246,-0.004248895293268151,-0.016633415418909236
FGF13,0.021157954133340304,-0.051224624351594486,0.07470643724108272,0.01282308520988834,-0.015323542619073071,0.05555445287709771,0.06276946850088738,-0.019386303175229755,0.04810267581113664
SEMA4A,0.011709928205024993,-0.08125908167407413,0.016329010971298897,0.07607573354688031,-0.03010865128705236,0.008772105618140588,0.07320932687198106,0.047117874884162095,-0.03833130864475157
EFNA4,0.05121101010481085,0.042250230021515976,0.0217631922949498,0.021197389270605105,-0.0005577469132554389,0.018074040064931806,0.0989393085846004,-0.027336659132166655,-0.01515039589305684
HSPA8,0.02319792070832136,0.029022725363505798,0.034025043439381036,0.0015014081100428193,0.075757791670386,0.08727222192623846,0.06329667639368784,0.04729324852291285,0.014838574081803613
NPB,-0.012289248326052198,,-0.015459604384970054,-0.02151460492253794,,0.03809160945600539,0.03222803119695096,0.00048639636918685464,0.023341933049584485
ULBP1,-0.012696806893339234,0.009771251320016789,-0.026854427126002303,,0.013771871066362105,0.04756224067923964,0.08641291993654708,,-0.028878414920459023
SEMA3E,0.02743030743619258,0.012324585281258835,-0.029309556314006883,0.003209193252675297,-0.01805143021939876,0.07354974668533672,0.027196651776627657,-0.04472227894927006,0.026563608408304417
FGF3,,,,,,0.06105625145482381,0.0962245187454503,,-0.059373697677247386
ADAM9,0.002512636289126181,0.10301858802044843,-0.050934928446676644,-0.0010399062800992784,0.05817285722115804,0.024995382901095018,-0.012239043072274755,-0.035852456482264185,0.021363288159867308
ASIP,,,0.011432663620146454,-0.03841704384020178,-0.005188261143719177,-0.022820232961691098,0.008620150234779604,-0.04813528602757507,-0.001471009362712748
IBSP,0.026034667592808848,0.015507205008510164,,0.006564848082655809,0.042811738753327014,-0.031134528620284027,-0.029028440178293577,-0.02516328559545922,0.06858619888707862
MMP12,0.09691801598193006,,,,-0.013776608607055965,,,,-0.015491732992219762
FAT4,-0.0409389455096121,-0.011546878253376525,0.03027897379677553,0.08101484356648303,0.0859780311827986,0.0589507961843683,0.12833568769409412,-0.06737427711169669,-0.019755850701257224
MDK,-0.02677923996113698,0.14256324671759057,-0.06881411119263847,0.006162642161296339,0.00429653887221366,0.054000427221177864,0.09787373296937951,0.047984623251257214,-0.013082473313050728
BMP5,,,,,,0.05462786458895332,0.04464762394251845,,0.0013078269351961542
CAMP,,,,,,0.04176775873261587,-0.04226469681486141,,0.04212514310892169
HSPA1A,0.022992359222055007,0.054694326393867114,0.003011998083216694,-0.03336127088622254,-0.04099942047550344,0.0029762589549093476,-0.036860978999837125,0.07153030515785254,-0.05886120371196989
SOST,0.1055280979665947,,,,,,,,
SEMA3F,-0.015312705922501611,0.13471935403199697,-0.023986904668813147,0.0696046371206752,0.0416995834349637,0.02315932048704451,0.11152093898902965,-0.010727857209544224,0.029065299836781047
ARF6,0.03346069445984601,0.07354230460352136,0.05456329949094826,0.032054637418983664,-0.02213549577720934,-0.05312914684728833,-0.02600947543471855,-0.024834327493681918,-0.031310969789654274
IL6,0.04295738921918041,0.0336874184703214,0.030750581509370156,0.01121423081252698,0.033117101072530714,0.06366731085304309,0.07946381871390643,,-0.04017926946552833
CALM1,-0.02518520558272462,-0.09739546160782378,-0.05352243868175042,0.04338525841022425,0.07433472066038856,0.02967055451292701,-0.02607350337037156,-0.026815088301422516,-0.02317716666702642
VIP,0.06757680418758039,-0.01073344307114204,0.067941433876227,-0.043608691085631625,,,,,
NMB,0.026282167820597016,0.06274864318559221,-0.02117621623310029,0.017786866543617004,-0.012369703600970242,0.08633913583967291,0.12238129958639267,-0.020733782292025965,0.009622674013122041
CCL26,0.01391161437566499,0.07294840868580717,-0.01625648918123906,,0.014321236216518806,-0.036332099587003015,0.017252976893186285,-0.0234670615296735,-0.027577166612809543
FBLN1,-0.013584090539857895,0.026812988938865,-0.024319772806194167,0.006029972323966071,-0.04170833990971582,-0.0634075572112456,0.004352753594907245,-0.03655138232609037,0.008650574557063117
SAA1,0.07600818341276128,-0.0207484487337153,0.029279966185301112,0.007334582843433113,0.050849101779314856,-0.034511930253956685,-0.12075565740013379,-0.044942000860802425,0.027676737015327132
MICB,0.029751132115401646,0.04975749114204613,0.01906674787733855,0.013043631921908374,-0.007093961411337341,-0.03983582701419619,0.008879922599226651,0.06114535226462603,-0.02089451849695695
MMP13,-0.014768626290893434,,,,-0.020139031184222445,,,,
F13A1,0.04021534265565558,-0.03906732894635628,0.028968462509213876,-0.01907222726391195,0.028207247594694604,-0.03265192737346698,-0.07158415996239985,-0.03656667242666784,-0.02486091633356789
CXCL11,0.0534141853030009,0.07412982744348869,0.03203624564968543,-0.021838700143920652,,,,,
COL5A2,0.01335092151684739,0.12757376663029701,-0.02274101745539855,0.030422029969308543,-0.060749207649313665,-0.05676494167152966,-0.026744805956662218,-0.02385380106616121,0.045199813676860164
EFNA5,-0.03943939604266745,-0.049489740321654555,-0.020124168676427256,0.04988338935247464,0.03543601761966398,-0.04547653543605017,0.06129441931394383,0.03645944214761801,-0.02330238887801033
AREG,-0.035631885429648666,-0.04024424097084033,0.019640511358002093,-0.034870580085704,-0.008184378287687753,0.060764696753879535,0.09323170386036266,-0.026762747223882565,-0.022304459973782775
EDIL3,0.024123322399367028,-0.05663768995758776,0.029711989995845556,0.010778530741181102,-0.0027400710580998944,0.037028585410845236,0.07759537497762183,-0.0018958756391079606,-0.028718534484023086
CD86,0.020692501117539806,0.07377630244523879,0.0024552385355514684,-0.014521014629358668,-0.01815314767302224,-0.024260719421259354,0.019541691961303218,-0.07926246864374781,0.017691944785945126
AHSG,,,,,,,0.07276677692580236,,
WNT9B,,,0.06815807826398504,,,,,,
HRAS,-0.0474012866718715,-0.04599128919373944,0.022664594810710828,0.062034400172519495,0.0012276439862044348,-0.05859108559541851,-0.052621011433930644,0.05991164409167727,0.07842387563708378
C1QTNF5,,,,,,-0.029743938047076486,0.06889527255344649,-0.05895109773821535,-0.01818489054567528
RLN1,-0.012858812392880675,0.062263306833659784,,,,0.023459438265978214,0.03566359060485579,0.008336675171947186,
COL4A1,0.025745706198116607,0.0922043446827267,-0.07087545596803639,0.041643727126501696,0.026500132368470847,-0.05738513601015301,0.043785568823082224,0.03353985214524291,0.09004956425983816
CCL3,-0.03433670127835553,0.05112215990806642,-0.04537987725773576,0.022075689604987125,0.06284525211441573,-0.06285642228946466,-0.0035276927331618353,0.004654617205558002,0.06450601491615177
BGN,0.011109486538790101,0.09766687120339665,0.03205730240357951,0.014197859484221333,-0.044737396026619296,-0.08758971323338186,0.014471054683441875,-0.019658931372482147,0.04417682139762762
RETN,-0.017332503111561114,,,-0.007198982465619332,0.1139970859838496,0.1012612996102841,-0.007279148887297773,,0.11368312031336766
S100A9,0.07868376898213017,0.03821862145561598,0.018116504109072055,0.009727430017004473,0.07566242838827697,-0.06074293983972948,-0.07329682840707871,0.0327901499425976,0.03836877360560583
HCRT,,0.08029618516281975,0.024629578950640555,0.05717100477865747,,0.08546959626831406,0.10114118913670779,-0.03904149119742197,-0.012176162164756883
FADD,0.00442142704815118,0.014062712470003185,-0.059519970545991056,0.010545399469768223,0.03359474244092342,0.04024942522103265,0.05802573044054019,-0.06657597894829989,-0.031224283732839076
ACTR2,0.005000294960344683,-0.013816567503003783,-0.008665867049728925,-0.0029623181318251235,-0.013763163625176413,-0.06860720400691371,-0.07260329840952229,0.011398901034902487,0.0280679456716249
BMP2,-0.02413753323674107,-0.010532015524906796,0.07196744590339788,-0.04068411821280417,0.1393929108714358,0.020403712835908007,0.11030616626189074,-0.04355919570764709,-0.05133098982310255
PDYN,0.03995107350002813,-0.09321331443476286,-0.007462304036580229,0.029774749593829298,,0.04466073405003851,0.030653227772236735,,0.0003490917774828001
CD55,0.018377484850755868,0.04606936839855613,0.0790354495215252,0.07129638861895488,-0.03371250792101503,0.022653007142074362,0.0323215991715467,0.013309722389117245,0.06644691296348082
OSTN,,-0.020042957840483742,0.015008576272636907,,,,,0.0065897099710615316,
PDX1,,,-0.024727172792916443,,,0.02932845809380713,-0.003534893553819984,,-0.009362462913254302
CD6,0.0009418566320263052,-0.025957568532578607,0.05510735274546269,-0.02673706161561714,-0.020337387224288527,-0.023392628635701723,,-0.024927354378246117,-0.02172317203166692
IL16,-0.0015144082728871047,0.059840872936588865,-0.007303890284754015,0.016977225548445104,0.027197833541777478,-0.018869150308786522,-0.00231612249147879,0.025662163437512465,0.0032828495059931233
LAMA5,0.006060592599111578,0.1032913249457801,-0.014192730248432803,0.06047474732398472,0.024663791045585293,0.01048482064140114,-0.026269975746636306,-0.010247512581607016,0.005284537281504118
RGMB,0.00771186282248949,0.05238751852354562,-0.003899906631038248,0.052361989684493675,0.039934213079908694,0.04358749810183261,0.012974874400239474,0.013492273753524001,-0.029738470611623307
INSL5,,-0.010306339190118455,-0.02951950140602613,,,,,,
IL12A,0.01578601208040397,0.04555887203775567,0.002716928914741351,0.1741000055125913,,-0.020957047067519243,0.027871357528574843,-0.016446732770495763,-0.01779554614071763
S100A8,0.09264057740051597,0.054664252617935755,-0.021379616766776834,-0.015315513676128,0.11742300794868431,0.00959460067883944,-0.01851710914028467,0.02482964581475497,0.061029321927284434
TAC3,-0.02978493087347244,-0.06957327278576984,0.06950933968221187,0.004363260631079489,,-0.02018869379621049,0.07074330153243591,,-0.016707257689434325
TAC4,0.060884503181632105,0.03279740484208397,,,,,,,
MFAP5,0.011834466933116272,,,0.05475737060540092,-0.012764089755890398,0.006286768775534848,0.10510798008972262,-0.02676275156945818,0.03658202941755264
CXCL16,0.057076328655638366,0.09664979706920204,-0.04149565377100419,-0.038520795254800747,0.023478007917602958,0.030221288947186575,0.044550321777281666,0.017580881604057116,-0.031217408376070642
AGRN,-0.00870267659984598,0.0932192053478335,-0.012586037781991579,0.060525353911197635,0.027933113001383115,0.025162887603028414,0.10886385130343006,0.020751287045018028,0.035806772224485334
COL4A6,-0.017332503419595243,0.03637457623320335,-0.020208407088442067,,,0.021462328532216794,0.06650330027222025,0.06055816962626994,-0.0466710109393863
FST,0.05057718097620032,0.0007117884104531042,-0.044424813199586514,0.03421498872704611,-0.02314572902425211,-0.01792547482169016,0.04414789032333413,-0.03457904834674872,-0.02179541089910835
MEGF10,-0.02475615348980509,0.04148024577476197,-0.028421972357587907,0.034508329469427876,0.06079095734405118,0.07085924974509669,0.045795944648096706,-0.10604659210054396,0.02541425984826894
C1QB,0.031176015717394746,0.06696769497336501,-0.013588575769843441,0.009598409859408371,0.01001218900033356,-0.00963960018520095,0.0019498526739703038,0.01996767857760155,0.09724965141416496
HLA-B,0.09925080354869557,0.10200790876401018,0.04682513393872902,0.025163800140294842,0.038863678891013165,-0.013773655690716783,-0.07781796737585099,-0.019942987314754683,0.003608290945996598
PDGFA,0.03925370020034497,0.021543703580446837,-0.03210766768419152,-0.031245349233671792,-0.012673818346135067,-0.10040977657201522,-0.06533450451599958,0.04724028192051144,-0.00558128720619991
LAMA3,-0.022974346499159002,-0.018218224545185072,0.026223471418112737,0.0539018089155776,-0.02178007105806237,,-0.0252629826107685,-0.021919067068209123,-0.017991200119275175
DKK1,-0.01018435248026256,-0.036949963765713405,-0.04901839248346668,0.028109742899768808,,0.046504201751671526,-0.02531055725989669,-0.019682673401204467,-0.011104464499220082
INHBA,-0.005410480759718786,-0.07762762588002077,0.006237592944440567,-0.04243412811092073,0.061863431859271935,0.02011110709417267,0.033171218382854896,0.02759815530531259,0.025468242956779293
IL7,-0.010667067068582404,-0.023072319125669365,-0.020552274434277137,-0.023376876187896755,0.037724066874526216,0.04594646033580036,0.04452316950070429,-0.02054777180941603,-0.017073881185184586
FABP5,0.04555750911605187,0.08946683466736945,0.00696001065496215,0.03757272516533796,0.005696458110129825,0.02036516337004847,0.02875038250432495,-0.03789094365364809,0.004547103420546202
CCL4,-0.014661902833339485,0.060154275924837096,-0.02837744705505974,0.02633573646813768,0.03974819340043234,0.00940877178985351,0.017500749209970187,-0.033280065123385674,0.0032196813513403096
FBN1,0.04133333862792102,0.0951690766170711,0.005123047615480492,0.009872681980158853,-0.024948858208239753,0.012136207803720435,0.050690322620689385,-0.021115793788098653,-0.0359925813567092
TCTN1,0.029012913713600093,0.13140452355847612,-0.017128279589030578,0.011839257783769928,0.07417746064193728,0.05224583841577022,0.022878996858107185,-0.05830608421720878,-0.03778808426771309
NCR3LG1,,,,,,-0.01830149322645864,-0.015995664337005437,-0.02054778271956724,0.047425862401399316
BMP7,-0.04851285656919669,0.06235073168220115,0.016493785716144307,0.0075837774565027435,-0.010762304548406721,0.013361015765085669,-0.023188467258286702,-0.008642198050150793,-0.0297550220952039
NLGN2,0.020797035427447933,-0.010622768624232951,0.023196836696995727,-0.010837390033827292,0.00997754429351782,0.04295668631010658,0.06532651252617697,0.0025000693061915215,-0.03676239144105101
CCL25,0.03143777857834585,0.04019864183180506,,,,0.05533431304509315,0.03729016069815402,,-0.04501851802241158
NPNT,0.02918155674323043,0.10591245495629244,0.008051488827082006,0.004610317270957204,-0.03195119287364709,0.0646392791114601,0.058006653761551626,-0.03139569914666237,0.028308596068100655
KITLG,0.014113489424302867,0.020316027163527598,0.025178474631216544,0.05357543790461643,0.019761979685813155,-0.0090789324939632,-0.012225244783829583,-0.03916392319423305,-0.001232228155284186
MADCAM1,-0.030402757973027317,-0.0068491856885350925,-0.03236185551863786,-0.030935768742918517,,0.04992408170226027,-0.029661561092186362,-0.027204401877272563,-0.016576377324631814
F12,0.05346754349018019,-0.08531334429308317,-0.005302288737429401,0.010483929160937433,0.0847717606606217,-0.013535442822874316,0.05004269755506237,-0.014223289934010522,-0.04926488826614319
S100B,-0.008437905451243998,0.10534409696996141,0.0010934559160613898,0.011959378752497361,0.008467139695162076,0.04747530884199755,0.1381257041435856,0.006795738568652827,0.0016236669758848878
IL27,0.10492748275802374,,0.0328438269487851,,,,0.04455491006481527,,-0.015491732992219762
CD99,0.02206910860966578,0.07738973313182619,-0.020783226595772884,-0.01994087883309802,-0.008366331054353948,0.06841026788957662,0.08120761825212072,-0.014581019348897021,0.0019579444718576416
PDGFB,0.05622954376692882,0.005104750026107235,0.012760617240394114,0.004164516955501378,0.06835518907531567,0.052163723756437505,0.02208209010769835,-0.04856307884231585,0.02081104695906294
CLEC2D,0.009503759782524268,0.0694875929880166,-0.0454378733334589,-0.02311543526646313,0.07019012916109717,-0.0144882665044138,0.08081252183576125,-0.07858641937569304,-0.01658042469415099
F8,-0.014959414504122446,0.05899542714373053,0.02679984493843979,0.01935202593448097,-0.0532398071901353,0.019626139844000547,0.07701645408003269,-0.06799545448169331,0.008480203246930891
C3,0.02290387289332431,0.05483971539064821,0.05282747100529329,0.013774976031968254,0.04608484788091672,-0.04639327226501887,-0.03357599796117359,-0.024633006793045302,0.09349859901183485
DLK2,0.048750043941010436,-0.0075313762079956496,-0.008137826641570681,-0.04079374328332533,-0.013744794245973004,0.0007465454890577869,0.02187675544295412,-0.021919075823520928,-0.056610781834604565
TSLP,0.07228355092917392,0.010335196601277248,0.048313518335777406,0.04652509314851194,-0.01456917841749111,0.024043880852572235,0.06496653914623639,0.022709038847636216,-0.03543023100320711
OSM,0.04365529667971935,-0.026487083751061454,-0.04873886410063005,-0.027702837556979755,0.04979026795741003,0.003919661293387312,0.024619784491083204,0.034727642606622235,0.026589297658843977
PRND,-0.014102527920379518,0.05174461130539938,,,0.07420283383786681,,,,
SLPI,0.06801257301099006,0.08899634884927331,0.03454312956956287,-0.0008092972121666735,-0.01361030815918357,0.018847870186448852,-0.10506102097067255,0.08036730284760471,0.005242150649334324
AFDN,-0.056395018436907016,0.03999856096240979,-0.017375210971697388,0.03539735563855866,-0.030959613300222653,-0.008559864092096085,-0.009450402918275954,0.03302080634005812,-0.023153321471672775
KISS1,,,,,,-0.011762631634829287,0.03085122210619931,,0.12597354246437453
ULBP2,0.010802239315108432,0.055094382369041024,-0.025461791306132492,0.08770713951420143,0.02142384024579555,-0.02453664879369734,0.11365945656871679,-0.014218524481473805,0.02400729244938706
ICAM4,-0.012671677488297901,,-0.023925808572130298,,,,0.008624974783073657,,
TDGF1,,,0.044600168403134875,-0.029513913827027703,,,,,
ANGPTL1,-0.04933970987999012,0.09999707070843654,-0.030522537032955075,-0.038716615217966016,0.07419964209200947,0.0636232868771564,0.07805711126325618,-0.020176200515529673,-0.03775638107247978
LTBP1,-0.03638584699859402,0.07412388328715394,0.056367340489365016,0.011117879362967691,-0.03963449011269665,-0.019418325953751155,-0.020579852985721032,0.018155282358966834,0.012955550357174658
NTN4,0.07596960610484273,-0.004327224942472885,0.016184502475446484,0.04088948303857229,0.05875920141781416,0.10555287402871213,0.11815784701307266,-0.031397213279730864,-0.013794255871791845
APP,-0.053292641319721494,-0.10167377530956352,0.05007987309157086,0.024542902040462358,0.007614779156909139,0.043546549207746345,-0.09523437344223552,0.028871728346052603,-0.020269808109035146
RIMS2,-0.02774679336148535,-0.08030353412302696,0.04047713930926787,0.03589387574611105,-0.004410310166990796,0.0015074257958966762,-0.018661842054000212,-0.02891163253377954,0.02182114577104871
WNT7A,-0.04275005124649726,0.009020731761479123,-0.04474234118047688,0.08549428387156496,,0.08952870620064295,0.012040654647029466,-0.03600857998690931,0.016827685086584398
GAST,,,,,,,-0.013602606633721578,-0.023716093457233415,
GPI,0.041469507185827106,-0.08045354619733283,-0.021651612823793354,0.03626948120499297,-0.013894291052134784,-0.013511707319848128,-0.05937507638585954,-0.024317710183859875,-0.04220103000388128
IL1B,0.04002638957357746,0.08790486171813452,-0.027976591127846437,-0.010350015067287383,0.0065184251951230605,0.004941956816898997,0.023558765824886523,-0.03423537708024399,0.004948391690988743
SFTPA2,,,,,,-0.019451725821675408,0.07412480848593078,,-0.016576378475370454
HAS2,0.02303871211423194,-0.009263978022933573,-0.004870478242920235,-0.014994821389132442,0.04307529662082304,-0.021634715415196352,-0.1273842204544015,0.012738597415538216,0.0057379955329403265
IL11,0.10663162716949363,0.016803771484660866,-0.011013969458384319,0.06874150234405776,0.02136348817633026,0.006578012474742155,0.029089079069400656,-0.024927358329763012,0.07604124284238105
SEMA4B,-0.010502664372982758,0.055326805204550585,-0.0068677267400520554,-0.0037171382390077034,0.003529261366971456,0.004034762105763297,-0.042261571835935416,0.011181623547433739,0.03860224382840238
FGF12,-0.047896768668748736,-0.09542174432044921,0.06546510390459728,0.010872288395051043,0.11010515835926908,0.01758252531591135,0.07245890117886077,-0.0017757008410028887,0.04890935723322142
CP,0.04347611148303553,0.08500355182541948,0.015059972654089917,0.022017193573357508,0.07987072293585679,-0.026997471418623995,-0.008263520281109644,-0.022610235847387604,-0.023477044975527897
NLGN3,0.03497965333683691,0.07685220468872321,-0.037330792911263753,0.050451631878101796,-0.02123516117251608,0.044877604285706994,0.09412737941420561,-0.01062084498743037,-0.043366785889085206
GZMB,0.062297506375550024,,-0.011433428445526812,-0.03986009822888933,-0.017536729710349506,0.00454459818092083,0.05123323857479632,,0.038490051053511005
PROC,0.028829143779154753,0.10477910688573915,-0.025937825987583454,-0.01984795472314154,,0.0360356402010151,0.026148746120991797,0.0031909625181955974,-0.031105304643171017
TNFSF11,-0.013043375227359912,,,,-0.01975842816335209,0.005061972049791002,-0.02997489834360568,,
AGT,-0.01731765899054294,0.0948780515906126,0.0498196061204243,0.038003960819379415,-0.00809089502360237,-0.029461358566329907,-0.014353574621202134,0.04080095375579013,-0.042459794602161205
PTHLH,0.04052593874982826,0.029808805351598876,-0.03891658506125062,-0.01913604283008193,-0.031264894096870145,0.0048404640993391194,0.046735874770224436,-0.034410385017359595,-0.027885118294668106
COL1A1,0.016084458689635248,0.0886686153219247,-0.05607816464031092,0.024866130524085883,-0.03405934586809682,-0.08904012383768879,-0.022913152520823918,0.04406116722995385,0.08627163434150303
LAMB2,0.009298266754137748,0.08234769584650087,-0.03637449502386612,-0.03750604266144328,-0.024096488820625706,-0.02718351822918428,0.04930920228653269,0.007940100120440465,0.016103392808046735
DSC2,0.036703804410800886,-0.046662862084253263,0.017985222890732032,-0.013949638669338746,0.026073390910213795,0.05405544301334797,0.00919299891739202,0.03810438668428071,-0.021178060623114715
WNT5B,0.010347489231057836,-0.03473117922450156,-0.015606100471411142,0.004462336774845199,0.0013313660237155517,-0.004848853638903605,0.028341115347725192,-0.024315492505900774,-0.016428638936516225
LEFTY1,0.041443145972035335,-0.02351122651990804,-0.024951200286304372,-0.009068843608719906,,0.011471800262870906,-0.03864579768319585,-0.033399403314004414,0.009539762351216155
FGL1,0.02924310924352255,0.0023039003452512046,,-0.04134608755974238,,0.005025476553571321,0.06341600965475412,-0.03208968589753399,0.00857982372544341
CXCL5,0.011306414087511799,0.017310300532863778,-0.021715477457102204,-0.018072177014431683,-0.02167202506803137,-0.014152638507279169,-0.012764747020426521,-0.04464419376033811,-0.03806532488195235
S100A1,-0.03697108472630435,-0.08239494484415538,0.07030979429698847,-0.02680039312886889,0.013162865927465328,0.05394294870226321,0.10708300231408915,-0.046984031197470376,-0.027309326241784372
C4BPA,,,0.01892191201657082,,,,,,
NPTX1,0.004644044997176651,-0.0695429990499956,0.08996774660650209,0.0438861135566555,-0.011479247863626064,-0.0012889234492048385,-0.020420514517646128,-0.019682668494194307,0.011538145716167045
TGS1,0.059945855909955846,0.030303043905289383,0.0075753094117368075,0.014439471819727481,0.018615183137097046,0.026856385101959313,-0.022060075365932755,-0.012771274961861272,-0.011167478152111303
SST,-0.042021743457910994,-0.08167040084792081,0.012946974323580548,-0.046188514083811666,,0.11404815284159785,0.01978214976307154,0.011216567827360155,-0.01939512243283264
IL34,-0.020198744825514224,-0.055826419042340814,0.029469660552728878,-0.02234646328858098,-0.004371539075336537,0.05654173540369753,0.032208166508526884,0.0194561614129096,-0.02232451620354955
DHH,,,,-0.023673446753995762,,-0.00791193392014804,-0.0035782543564029743,-0.0346681518539144,-0.011754148596643966
XCL2,-0.014604785676208104,,-0.017837425770154194,,0.03584922994320248,,,,
TF,0.015557455098165165,-0.01080023718560045,0.022418407188924825,0.044190396808866286,-0.022524079248684437,0.003394590392280548,0.08283879522148732,0.006713730851833452,0.00010135499147921927
IL33,-0.03935151540972029,0.11886001533161177,0.09152350699502056,0.08255020262416826,0.008696025218914891,0.03885767628846631,0.11326293958227944,-0.023797833692428192,-0.015040191370544029
RBP4,-0.04726190338424044,-0.06647690976138146,0.044979166075849446,0.040297804892627416,0.0255896159958297,0.012718479955844174,0.044359851765952474,-0.026087948397042943,0.026022107230145187
CCL19,,,-0.01648930404667749,-0.04642595565732333,0.06732561828921571,,,,
CCL20,0.11460972731523247,-0.01909589126366508,0.055397884856069446,-0.01686506084683503,0.025840082028193788,-0.029676093767779996,-0.03555729346844516,-0.02191907899573794,-0.02963605255719857
NAMPT,0.06743176288914776,0.0334739012444148,-0.0013663011327769722,0.01984424824222239,0.05796105608390407,-0.0658641164681082,-0.10081678229925108,0.023752056539808036,-0.006538337626482272
