,MGH258,UKF243,UKF248,UKF251,UKF255,UKF259,UKF260,UKF266,UKF269,UKF275,UKF296,UKF304,UKF313,UKF334,ZH1007inf,ZH1007nec,ZH1019T1,ZH1019inf,ZH8811Abulk,ZH8811Bbulk,ZH8812bulk,ZH881T1,ZH881inf,ZH916T1,ZH916bulk,ZH916inf
IGFL3,,,,,,,,,0.025340601255733106,,,,,,,,,,,,-0.04732857665329779,,,0.06685110944104034,,
BMP1,-0.018054527275128664,0.06581151079156182,0.1558140715121616,0.013305539826445658,0.037599388058596105,0.0444679376956676,0.013941105425670617,0.07213909954123432,0.44945167090795357,0.023224441291012525,0.009468225941784534,-0.04678346321283569,0.06101410128409892,0.08624135032991821,-0.029592731949316976,0.09521675114394987,-0.046622483782383733,0.07945746192846381,-0.012824858142680681,-0.05773133228589511,0.1336695685585888,-0.043450080205538234,0.0017684462440473905,0.04051038713951103,0.08333104298610454,0.013693588743563991
NDP,-0.015808553344730074,0.1915662149784747,0.0195759281973372,0.03367855866298492,0.005438244164267547,0.10940386770169548,0.03243898171872106,0.020789722459385512,0.11167039976637923,0.054814440808211795,-0.03634563615604593,0.007394604410362022,0.08647994755215443,0.08219792666656127,-0.007266575456056751,0.14284021174119782,0.10168153308313037,0.1281741060565241,0.139701959023575,0.09832166381500929,0.10263198590507588,0.11750150822743491,0.05843088501931688,0.27785270928901445,0.18573303914341044,0.020508208910504856
TNFSF18,0.03376603691607797,0.05685806039790501,0.07815689705994512,-0.013106534885226978,,,,-0.005427555535657168,0.09890697426089566,-0.016021788660954682,,,,,0.020189731443360538,,-0.040543189854248304,,,,0.0711246436832466,,-0.03717913215500625,0.05781069476657851,0.018802286841983908,
IL36G,,,,,,,,,,,,,,-0.030004084526181814,,,,,,,,,,,,
RTN4,-0.0008096175771027556,-0.07736350767252755,0.03160114680156019,-0.03502620185275187,0.051224632513651176,0.055683132435203744,0.00488055158258475,-0.04268385003172086,-0.4848564283609053,0.11115285124100985,-0.07087889282950745,0.20896919100982972,-0.035858550546837155,-0.09324852350213735,-0.07582166767315793,-0.026916649803409843,0.0281904256050886,0.008426280378161373,-0.03907534891917985,-0.028207677191106034,-0.211782763232165,0.030871789809923826,-0.04969250455793906,-0.1114667434815397,-0.12438260219679124,-0.022616557846030613
HEBP1,-0.048032907556816974,0.12484633388814442,0.0817231493233345,0.015734977481394893,-0.02235152126998872,0.018906963187098256,-0.011555510221222443,-0.009356645718378236,0.1808003004932057,-0.002355585590725796,0.02577839157841422,-0.028564570308404036,-0.04291680635779452,0.05382824612677737,-0.03856823463398741,0.03737069244065304,0.1353002852653628,0.024630302691225972,0.08975511665109229,0.07946963302297554,-0.006343220577984937,0.09315921320354835,0.036228677672086665,0.23280693185767837,0.13043457415921092,0.03524995359580759
WNT7B,0.028632679305190777,-0.008024713383294241,-0.050787870572475816,-0.030286974897063557,0.021040792379289127,-0.03828335637804024,0.07561882474406006,-0.007688424101160849,-0.20060915431960935,-0.043296964797828526,-0.005682670453266202,,-0.003705491508736127,-0.039747729760910955,0.007156095246470332,-0.03885004768103837,,0.02140722843407832,0.042624656628637805,0.0454844239929362,0.008155680567771443,-0.011088655266688547,-0.05751033347693194,-0.002244776983736634,0.09015457521420926,0.1903330891304442
PTMA,-0.03383731931172039,-0.142126744750869,0.15802010304370198,-0.019652092822616093,0.011813073769500016,-0.03919226745527969,-0.026517002077933602,0.04954497236101274,-0.1940297476874201,-0.009106134445996028,0.022819182639151905,-0.18411236309881132,0.07887802990071832,0.11415911332274582,-0.035201328583754854,-0.1314238495142733,-0.08369635846795222,-0.0663944598698051,-0.07224129226467825,-0.07785545109917853,-0.18775069053987048,-0.06359153018841295,0.0642394556916155,-0.18605396776613298,-0.094624973646885,-0.001002335792786918
FASLG,0.026903354817799274,,,,,,,,,,,,,,,,,,,,,,,0.007295134747536409,,
CEACAM1,0.004125999642711347,,0.018273451733513524,0.0219226287146006,,-0.02825430850071006,0.008083521646747804,,0.06014538424227973,-0.030635620006169536,,,,,,0.047532077341941564,-0.03150753324601707,-0.007912596239407092,-0.018863745935864876,0.0007345082662226086,0.07032510059992701,0.011519017959502338,,0.05890688527927774,,
PDAP1,0.06062650739341223,-0.00456292315506605,-0.001659777110646552,-0.012711057036209956,0.06494796780053315,-0.022135610976980667,-0.07194982058810408,0.04047855559643916,0.33836788722421063,0.06541590379077511,-0.0069391267103864,0.12876922697545018,0.10308648467731125,0.022790788974650717,0.07576993901525586,0.053866733871935926,0.020162947588085796,0.08003965576700044,-0.03059991579843245,-0.028257324834351696,-0.0028820913061572482,0.012636874911398989,0.08869490521903686,0.04892181682468296,0.03506641109338952,0.07145518505965108
QDPR,-0.03001922594647326,0.010953698494770257,0.026727461535662765,-0.007517198768853416,-0.011514427061560818,0.02267959199196096,0.11180152986132835,-0.0017963218782995314,-0.3280785074710829,0.07393649147535168,-0.007613072839270489,-0.1315702074356621,0.03080375005025918,0.018001806128186536,0.027703923266488295,-0.011360010136623503,0.07026388612717761,-0.09354251292477987,0.12911840237230188,0.14137487520687111,-0.11738163596799549,-0.008461618453606814,0.07703841459382663,0.18692038595126698,0.019645985738433396,-0.03188680591662624
POMC,-0.02278296130501984,-0.058134167793606514,0.05468252670960879,0.027777929678313888,,-0.007927891074105752,0.039242741112497356,0.0006884553896540862,0.08460350152702234,-0.030692349999450728,0.028446411542838394,-0.03268797272378457,0.017962103768828144,0.021438605035599943,0.11027937801851781,-0.014649350937365344,-0.020238071762559453,0.0005283131085861961,-0.02284854961430699,0.024897342554693336,-0.029356482885971022,0.002836214376418352,,0.09703677642881066,0.012580607350448962,0.008947486678308145
CCL18,,0.0029684768995400365,-0.0503312904579115,,,,,,,,,-0.10633288515159578,0.09689214587052297,,,-0.012974613183067816,,-0.04456780669478186,-0.005972548150994868,-0.058747432302490896,,-0.06206946426923919,,,,
CCL17,,,,,,-0.008061884029591227,,,,0.02007841843535814,0.022756694600793263,,,0.038781582330555786,,,,,-0.027865923201642856,-0.010167087726057672,0.006146776327088721,,,0.023635959764383704,,
VEGFD,,-0.026175844403288878,0.03498551233029041,-0.004928660710425642,,0.0029521171589816514,-0.0255310358084067,,0.058891420953583094,0.047788419578418846,-0.02471657510722757,0.028358074652467844,0.06008750795542087,0.06900743463684479,,-0.10603340534218104,-0.028194182500846723,,,0.038622229518779014,0.004503962988254026,,,,,
TNFSF13,,,0.09253180869946606,,,0.030780895501817628,,0.05120834806342218,,,,,,,,,,,0.02172968285018416,0.05288751734376156,0.070508783823472,0.012347990955533666,,0.06081055642099045,0.034379670069671714,
WNT5A,0.03855218943221565,-0.04458215063773266,0.016053071754391846,-0.018108939260287345,0.046148294582440776,0.03521825067547425,0.06457025688235307,0.04047684985277575,0.3010625392968534,0.05247676322571376,0.019662229874272786,0.02976823618150687,0.08637575358017982,0.06091544316443719,0.05980787826670093,-0.024441593074871305,-0.059968616662723864,0.07128839054899894,0.055950306197197666,0.04366351851303409,0.035380408954127904,-0.0011106314118978894,0.011578481060138632,0.03841897669418393,-0.0034266652203893836,-0.06851192190642241
CXCL8,,-0.13517421264863122,-0.10390732922115802,0.04009005704222026,-0.05856142005631572,-0.13308615615275393,-0.12639492582253617,0.08260846586589261,0.17156327962615175,-0.03797194859689335,0.05502470647625344,-0.06387155740789917,0.023957801997095424,0.00638908505943527,,-0.18080895338564593,-0.062160208092188925,-0.0784686405857472,-0.09733303055741074,-0.22860001207928235,0.008963231147496326,0.013601405129768995,-0.07260754196104059,-0.049878757212819654,-0.02944793601570442,0.04203820633154692
GRN,-0.07306481566453639,0.023593834901308154,0.0694154538368193,-0.00274778221090325,0.029829760609322985,-0.021426582187206368,-0.06213508509064589,-0.005764292325723603,0.3865085653905524,0.04192000426120544,0.05058328213471417,-0.09514435574855021,0.04339193542907115,0.019411206974925193,0.09878656518119353,-0.06687107956548792,-0.047142480704598644,0.07036202912083867,0.03195432862550814,-0.0558232078077841,0.17364982649811467,-0.10628915021288209,0.08061640638135426,-0.15668014945279377,-0.12566654948916983,-0.11731071633449087
MIA,0.09161883896928807,-0.0272786645516782,0.013792546565656937,0.10348815033833318,0.06511298199064915,0.052214382949451646,0.009878505540129678,-0.0004502393887414236,0.17943392999730157,-0.014009180113907399,0.0653732158336992,,0.07601812482220857,0.055618780060716966,0.06955947203834476,-0.01086491096899546,0.07210950183138164,0.06618662590118672,0.1342974204712092,0.15166608159770098,0.16034455747370976,-0.1577021882113816,,0.2934680160487648,0.011328725467348049,
COL4A4,0.019306769751032408,0.09231118407943344,0.11142102378819983,0.049270094866036375,0.0641138690655297,0.048195295980200156,0.04413676788274813,0.009616739317503968,-0.005183897682435952,0.07853828606224453,-0.034014206809399025,,,0.05371696731790507,,,0.009888452836190744,-0.041520497509768654,0.049971437773994334,0.07289763185213004,-0.03197000084491919,-0.023399764229159837,,0.023327898229003094,0.03591315681876387,
TAC1,-0.00726746449005778,-0.037895641645744126,0.12501839613663887,-0.020313735100950758,0.13093919081394217,0.06746026455178485,0.06986363405579753,0.011005387864908458,-0.31940998532883347,0.10711843834066856,0.012793335833884333,0.08810977308261526,,-0.07396107708206158,,,,,,,,0.07665916764241835,-0.014412731083930274,0.004615485559272394,0.0022392266193436597,-0.032640497999325904
RARRES2,0.04122638569049907,0.0260311744803768,-0.06641960668632307,0.014703559658529415,0.05647254888591118,0.03875112903505886,-0.11335128329904819,-0.0012847736753653137,0.47115871934627007,0.12043784732832172,-0.008957603429022121,-0.06069540091984756,0.0808562070447238,0.10358983929286489,0.013198983269724,0.0764668625146492,0.04649561699255308,-0.03949442095322054,-0.04651634378910865,-0.12277644862526772,0.018490322609450587,-0.06699492534588088,0.02725456972427327,0.09505307291269442,0.10656805161412695,0.031359512997254924
FGF7,0.029501558015875153,-0.0016159894472278077,,0.019571821848225274,-0.0276222725794084,-0.053879546752893456,0.03705566847625773,-0.023396850488937204,0.18476543651287208,0.019094129240283943,0.03128048338167518,0.04248409595232784,0.10701745897109824,0.058233353099789685,0.0036372776569256987,0.06918060362195332,0.0632810447808686,0.07782487766537856,0.08035915173441846,-0.005933560962129144,0.010824331064467844,0.027855033996574633,0.09530910734913926,0.20045018419033522,0.040561133477889116,-0.023071184193742794
EFNA2,,,,,,,,,,,,,,,,,,,,-0.029477420172251727,,,,,,
HBEGF,0.07212087526030327,0.017568168083387466,0.0596766196751219,-0.06160356214773684,0.03563196990973558,-0.06013471954899828,-0.08981505277948597,0.04069578995289497,0.21515293513871525,-0.11034547666714363,0.0158607870545957,-0.07470740150471554,0.14271098095777876,0.04254795864725566,0.10216768105172537,-0.008291716955558397,0.003201182084981583,0.03199272218283954,0.018932449359394966,0.030023597703482802,0.004143622473028356,-0.03791456022366579,-0.04558908741825597,-0.12637914214789556,-0.051965763108949646,-0.08208616937000619
CSF3,,-0.03534968886207835,,,-0.04654939555092649,-0.10582340595092427,-0.0654344080448143,,0.018954275202415476,,,,0.014880157718345156,,,,,,-0.013541382018174038,-0.12265618607255699,,-0.017076316206796744,-0.03100450461266796,0.04286658835633607,0.04415153612543095,
PI3,,-0.053760537227094035,-0.07243850285253092,,-0.06670826308475152,-0.09552408046912275,-0.05993486539176297,,0.05802933023641022,,,,,,,-0.061737427443762094,,,-0.1282479627664613,-0.21885739337959256,0.03733439418454683,-0.08316954200458462,,-0.15334620186617373,0.06265041596830699,
PCSK1N,0.07676212015448912,0.09879263701687134,0.05374324932606066,-0.01355208576074031,0.023317870122611686,0.057753635448471514,0.040644498661352044,5.753178990237532e-05,-0.1277605755281895,-0.02505463033321248,-0.057974204081491836,0.17100089167597038,0.01278431295797755,-0.04661766208287071,0.005733890399461079,0.027563066000823387,0.04549921476291821,-0.0929898108073873,0.02272894437374532,-0.009034965120678681,0.015232592392854235,-0.015043175550445324,-0.06998263592613395,0.2280188914786264,-0.0814850968864001,0.0015122359750466769
NTS,,,,,,,0.038225304935134326,0.1672990107983097,0.011690766923469858,0.03720123054569329,0.01920700299832622,-0.010642227284474913,,,,,,,-0.01914445235103507,0.05839746632349034,,0.04775951610163436,,0.08936748137820968,,
SFRP1,0.004655170369428664,0.0032918956158508247,0.007718465384406189,0.036205944171341514,,-0.005690534056369955,0.02141943548648145,0.06683308247573642,0.03233524088845466,0.007670018926185084,-0.037216826631335596,-0.09359489726240838,-0.010009439734041113,0.050684089281750486,0.2076476019876652,0.022219571078981194,0.056869166192603196,0.03146673075116257,0.0048500043905198515,0.032054187108053286,-0.06735275047050261,0.0824350100279345,-0.00963384659781202,0.006541272487391771,-0.027165125916044117,0.005056264053986525
CXCL13,,,,-0.02375977139472552,0.03172678315391091,,0.06310843500024363,,,,,,0.08606249474168359,,,,,,-0.022903691825231106,-0.09795766401540196,,-0.06504852485708633,,,-0.012178399183907075,
MICA,0.06088404077038649,0.03877560825178174,0.08128065658298088,0.006961750949479591,0.07401320010056849,-0.08566101360255078,0.030122308182751585,0.10141202829117424,0.2113752204843756,0.009424922180759172,0.04752217178629136,0.007120608463865604,0.07453697162410458,0.061500241299300186,0.06180466962603415,0.07583385170610495,-0.034536148240943726,0.05986805705878591,0.057907982216907135,0.03193808290094933,0.02025288739673842,0.10101860469666421,-0.027034158438893497,0.0702514409553782,0.11268973257130742,0.11181096921875679
TG,0.024227196403253184,0.006630523071894573,0.04443385733440284,-0.021260605732168036,,-0.008477162376521621,0.020159856952925086,-0.02207988984590736,-0.0057017457467152186,-0.0093206718215185,-0.001832806373814685,,-0.04385060057946685,0.05152564779555411,0.00601602621005217,-0.06690726318518549,0.012815893931599924,0.020017940603909132,0.0012950277966604267,0.026464627780200565,,0.03163965604401437,,0.06113291041122377,-0.021264143334456326,
ADA,0.028170530438944564,0.017209171719188794,0.08323108898849693,-0.041291049063943534,-0.014632041587058687,-0.03551983989351433,0.02357024261755725,0.04054136712129381,0.28060645459750416,-0.032121694579793955,-0.030050557718855928,-0.08448010809978088,0.0682539148102061,0.0593108192869342,0.03598830962234662,0.1931181350777497,0.04179806094593568,0.13563811046848118,0.029336624916539374,0.05895066553169266,0.07752882799190176,-0.057401831985772415,0.026075374025351313,0.095859739665338,0.09544803875638164,0.04200066006207612
LAMC3,0.06371225604943453,-0.0264077090988588,0.1302613753567051,0.05936071298272852,0.06026028425464567,-0.043208993828992945,0.11981451752621942,0.02585155134318662,0.2619143466778794,-0.045761019390081835,0.027940707848473745,0.04109269885279253,-0.004709642839638885,0.05315629543613153,-0.000767674396730055,0.04578874942248923,-0.011439258215056711,0.11439834945407734,0.008254277565451728,0.053982835610398294,0.20657349957143678,-0.015431562380555241,-0.07999386656037295,-0.014417946625045133,-0.04435118470087856,0.002216361952215325
CCL7,,,-0.007989983944664226,,,-0.055429688590470615,-0.054648732354134213,,,,,,,,,,,,0.0031896982128812,,,,,-0.0522830546330868,-0.04369473088341556,
NGF,,-0.013021735711449467,-0.05252522703833827,,,-0.07674219031537334,0.005300676638631056,0.000919451626718111,,,,-0.021422746167716875,0.03291952151767994,,,,-0.04389002076584056,-0.06623057454400953,0.016222753556949226,-0.02910905107279592,,-0.09358818001562004,,0.04772307533425244,-0.013179249992288379,
TNFSF15,,0.020010929906955334,,,,-0.010400785503796294,-0.05457264355399937,0.04198725128341684,,,,,0.043516536400469666,,-0.04050543780473437,,0.03303954892422768,-0.012930102213060277,-0.0030793602253718425,,,0.03247581649752777,,0.0049424493763497055,-0.0016850132269291332,
HMGB1,0.033652739226880196,-0.058554890501283686,0.12222941989364791,0.058072322191635856,0.015454742103791714,0.11474378816661193,0.02474783140677499,0.017175978486697427,0.36676664965124783,0.09742933258206318,0.02095178305509495,-0.09115424456018872,0.12474379357194336,0.08198639308894508,0.023238886059940837,0.07239667180962253,-0.17844581668998138,-0.023174175308588466,-0.11706384945657244,-0.03927735314869261,-0.06377800400848249,-0.06293130117246921,-0.026970995237792172,0.09874169464963216,0.040253991121343174,0.0038772771527463418
ITGB3BP,0.06824882721277638,0.059623789923029864,0.007876936410029118,0.038454867909754664,-0.05595494388055203,-0.011753159102933668,0.005823522434013657,0.07693783298303555,0.2880093790419366,-0.015066240741659277,0.0464241379692038,0.023290978066697582,0.11775766859769249,0.10334459818142308,0.059132110276670424,0.04926595111249306,0.014203346667033915,0.08964283676952392,0.061308872186051765,0.0013592763172737327,0.040004609943368345,-0.03357152185953127,0.022442034613412716,0.11214229023239003,0.07740559151908426,0.054834312129419464
AANAT,,0.03829869693679935,0.007241031135319284,,,0.0007964082322701654,-0.024476065437399174,,0.06577933337948653,0.013322207459338426,0.03259728241383329,-0.03857475609934908,,-0.028607800352777612,,0.05993921065652498,,-0.0464192388721906,0.021003586565253564,0.10969070096230528,0.028816281286447257,,,0.029478368761054075,-0.02723657118306375,
RELN,-0.016263330482477557,0.013504374755077547,0.005855878092815954,0.030473650776523357,0.02398886828118146,-0.0312278434529731,0.07476384916009564,-0.0137401114959635,-0.20587310683101917,0.00549186173297815,-0.016523801388791316,0.027392407778311145,,-0.04986623964556972,,,0.02411740674592721,,,,0.020387302398069258,0.04835952935713297,-0.06177919735708482,,0.016489046949933826,0.01477295773592897
IL15,0.007829776214454954,-0.004545570690340996,0.027255565314829342,-0.0521763587635822,,0.004539171158678755,-0.0360097679418749,0.004648043029149364,0.056325725495255365,0.03873016382260614,0.010060702960413795,-0.04368760611811033,0.08500712361223994,0.02401280065007485,-0.06547046780580064,0.015521439528033776,0.12028962553984203,0.04884008077252014,0.00335743520581149,0.0009500840296138467,0.015695259948262392,0.025905185654320893,-0.054668673390882,0.08087211493466319,0.04908312449387723,
UTS2,,,,,,,,,0.20994947716714465,,,,,,-0.019186695329008848,-0.005900422803400172,,,0.027283454723643165,,,,,,,
BSG,0.024711098984002405,0.11648045566490146,0.10493054274224019,-0.03969168360325872,0.04103607599086936,-0.09550218259541356,-0.01839529817237741,-0.021809362739496435,0.007617518031656978,-0.1147477780904265,0.07944128726802914,0.11663956675954383,0.023383771396034193,0.052619585233263114,0.027067273963301112,-0.12014286086326106,-0.00991947976053343,0.05346135185233476,0.04604570722654924,-0.02753274503321351,0.23231472886286386,-0.09651271044073444,0.1469900233189904,0.12277724446309286,-0.013507420390496695,-0.0578980922576172
ADAMTS3,0.06247261474507735,0.04339775618311557,0.05735906977784637,0.003529914593533963,,-0.0018735866132472843,0.03512588486875553,0.014564830162135093,0.4195567493319679,0.006600600667291147,0.04483247776455256,-0.02523478840131782,0.009472304829470988,0.026296064945209956,0.12988056900261416,0.11999639247844954,,-0.03067905911442965,0.1399132136460305,0.04033624622043003,0.08189785368007037,-0.012246452695378407,-0.04688538691848378,0.28549741530876416,0.05526719749195916,
CD34,0.09475265400214132,0.08301826165174736,0.14653713544472574,0.020815137409515103,0.045905512741793254,-0.015112523346662438,0.0795464057109398,0.026476979362326594,0.2127322252623488,0.028703312693592224,-0.008040540038627073,-0.046070785485097514,0.047830603049337124,-0.008330618825370858,0.07640346677422896,0.03641467122070687,0.05363803772314983,0.11140443795013076,0.09489854875820626,0.06449934273403443,0.12591729967782822,0.02566904010059772,0.0855573366013092,0.007535045153776669,0.052819732860653716,0.014590951580820802
CCL23,,,,,,,,,0.047937573902601956,,,,,,-0.0276890361751806,,,,,,,,,,,
PLAT,0.0969792989204085,0.03744603020471382,0.1814843207103556,0.042484132407867976,0.08243703573691206,0.11447210853458593,-0.010182763198262943,0.09772069668557343,0.34817150983283096,-0.06402248572559664,0.06934763200023968,0.017065898237307083,0.07238723597972668,0.10319040612132659,-0.044237680412425325,0.10286238561677676,-0.04677987004148124,0.08233049135737827,0.04278705976267414,0.11935205832608765,0.14441256397399463,-0.15539266757442652,-0.04383496167751909,0.06627521488369875,-0.003364945740377007,-0.06559233712902776
NTF3,,,,,,,,,,,-0.028442074777332186,,-0.0488020303147413,,,,,,0.07458559248304553,0.11732257293652813,,0.03590694658530137,,,,
LTA,,,,0.005804854519278806,,-0.053297828834604134,,,,0.017496550269729856,,,,-0.021391256567434534,,,,,,,,,,0.020305532557003927,,
CKLF,0.031492421922983765,0.11821180069107097,0.11391032860669004,0.03489548527505008,0.04270960300224818,0.036005426224895644,0.028262085983802997,0.07732616916886828,0.4308527599733785,0.03741905230814225,-0.003976549595398271,-0.097160615367832,0.11998923588018827,0.13502615499692355,0.03961985611413691,0.07495133309966506,-0.1396977929329969,0.10592025860865341,0.0547373568689526,0.09323679950877008,-0.02053735965415531,-0.009739965060384173,0.16755431722185488,0.22641039175081362,0.11472942420043505,0.01255774270498023
APELA,,,,,,,,,,,,,0.1547494390780639,,,,,,,,,,,,,
CD24,-0.008432220604133211,0.1362468120849089,0.08912012925565102,-0.035149135242542845,-0.006990192529769301,-0.009007550002693356,0.08819786274589278,0.13445778684550555,0.043260888938600105,0.15553960959965732,0.10818955159996056,-7.925308865408467e-05,0.06825155856401775,0.06230808037037438,-0.00507064849658641,0.038880011386830886,0.07035847117992695,0.04266767089882646,0.010971734842052003,0.09007852246080005,-0.00803108305308376,0.14507366748762898,-0.05372802251477465,0.056143285894445935,-0.0038510420423966663,-0.0532494497072183
HSP90AA1,-0.03648865414967958,-0.18147169153951503,-0.050574564336502585,0.032618853762141894,-0.16223092425216049,0.09001971850488474,0.06502413865399294,-0.04523287001209215,-0.4284057512696252,0.016450474376224898,-0.03084433456947999,0.1577951719116512,-0.08191228037709218,-0.13439487335207648,-0.04151456132317569,-0.11863309359204635,-0.02075321561725206,-0.09689038906666435,-0.1677092542508988,-0.26554231056293165,-0.01250245633615193,0.023821342233605425,-0.0241451961090915,-0.11730011086042763,-0.09212909311627301,-0.11324392730804303
BMP4,0.07913108339831891,-0.008819958913468094,0.07325419959231073,0.012510531101285508,0.07449679278924701,-0.07466378444733757,-0.00042848258448896476,0.014929657798614947,-0.04435760085055955,-0.001328971694154058,-0.01490535397279654,0.04510048049093366,0.01594135709315074,0.002508993651009426,0.037571440490570894,-0.016591949210089788,0.15833596563943722,0.05482996174462353,0.03968039965775801,0.07628044431477604,0.11015477647032873,0.09990042760232375,,0.031222097132797527,0.133118402035142,
SCGB3A1,,,-0.03635323303270965,,-0.03908121702351184,,-0.005871995717546465,-0.014244891282058974,,,0.01620176366024023,0.013966372056096372,-0.004507273879092808,-0.042489249543664474,-0.012904283019927949,0.13961008138917297,0.04522640175890748,,0.06859091411146907,0.01837751963589673,,-0.03919575927600359,,0.0005220284232461823,0.03210738880404313,
IGFBP4,0.07370704501458557,0.016767026248078305,0.11043104659176822,-0.03326174732150486,0.07229563106854449,-0.02992810439535348,-0.024965121257576703,0.04797313394917167,0.2844316755311181,-0.03509348505585467,0.017914929515199875,0.01150734481367205,0.07181556305563909,0.002575201692360138,-0.09117700131018054,-0.03044439934393107,0.10781388914479766,0.030508227490653114,-0.037289910960543994,-0.08209551283357576,0.24786724177251304,-0.12391725831378651,-0.010580853984467047,-0.03532677416818349,-0.13227299444443066,-0.011276060198191806
RSPO4,,0.03969980361787562,,0.00562298661617449,,-0.007383673750521292,-0.01798142092331937,,,-0.021331187242961014,0.012503267312647828,,,0.07350330795421652,,,-0.04394519811591821,,,,,0.012801575178563224,,0.06738308387885224,-0.008518473242170631,
LEFTY2,0.06192683809554846,-0.00615758832182961,0.12019275102835965,0.009529876125610343,0.10053244343415763,0.016019817708835454,0.01841045050126236,0.05074389330785996,0.34873355929974564,0.0016211398776681553,0.006177624714945769,-0.04217084202612046,-0.019885448017043374,-0.005640606088540193,-0.09564061261884883,0.13850855416458352,,0.014600463897787127,0.014421795467677608,-0.04833573221198538,0.2049186357597381,0.0750647551840455,-0.006042590528439294,0.10801761131117753,-0.030590587655158923,
PF4,,,-0.025250300373189417,-0.035244320267049024,,-0.032254607796493036,,,,,,,,,,,,,,-0.025199973551815847,,,,0.06178128200688763,0.03144183981841402,
ANGPTL2,0.07274101707251486,0.04717646732508763,0.1185088110125942,0.013693152524781666,0.04742718864109703,0.0819688136422085,0.0015068357875735658,0.03998466359746732,0.32300217199148906,0.0923060148964901,0.04180808877358121,-0.05316607368589521,-0.09842937533924923,0.10977696586753266,0.0072170585766012305,0.1267399731599324,-0.0644107490552299,-0.011454386677306654,0.15875909466902796,0.2312940739593871,0.07950709875529446,-0.029012623471710238,0.020117615893139863,0.023935097235892332,-0.11793632168920766,0.005376407883478955
LRIG2,0.016481202933999156,0.07778629646746353,0.005498541821107168,-0.031097230513893112,0.036899116517117504,-0.02094628633080845,-0.0007895057485320443,0.07540792918712971,0.17660630321855014,-0.04224867221493438,0.016828054090141997,0.023720897448853737,0.020194670398191086,0.09924520511056693,-0.0062945991604043345,-0.010002044762900899,-0.004103466024034524,-0.009347644162148632,0.0727922309008771,0.004516851033903592,0.042022885219646346,-0.026510935789344183,-0.02489947859817963,0.20518087435151833,0.11426966711713289,-0.05132932298473869
ICOSLG,-0.0015105668423533284,0.028850453114033454,0.054355240103412625,0.0157200740627584,-0.011044960127153242,-0.033312232187503836,0.010783297097755964,-0.006731441876832238,0.1737974477831566,0.03122034757434605,0.027737808108973392,-0.023609736147481637,-0.03476267827993629,0.024709780848428963,-0.010783773249193211,-0.015477328032270176,0.030935338958962017,0.015790580033791475,0.0523131462938346,0.07866766637955162,0.08607557794805157,-0.0004771988613865544,-0.021284422092460367,0.1637600819296393,-0.02997482741391214,-0.06361624681294527
WIF1,,-0.06357798000952955,0.00674091169066633,,0.025698496835109077,,0.07816510253984216,0.012597231746611986,-0.2980384932008104,0.027084599014457724,-0.006176699670606631,0.1462490671560733,,-0.06502474850592214,,,,,,,,0.00046932455919258223,0.02026321684689357,,0.008482919782960105,0.07036338563838135
NPPC,0.057825950807251274,0.03751011007589883,-0.016548225387865535,,-0.01648748194609619,0.01336006084194205,-0.015026628152997549,-0.010926688147574883,-0.030210118880444135,0.0662478118157087,-0.0425456185205144,0.022184046850944057,,0.04682019797897619,0.013470212359814477,0.0020697404379797506,0.04140085207376158,0.040794298336966524,0.008981811547865835,0.0316016782000268,0.10218790035255362,0.008854738879269379,0.02997968321347115,,-0.04542860242226879,-0.051793956361360284
LYZ,-0.005902374164305438,-0.0746699010326479,-0.0035861699376278982,-0.00399160436567329,-0.028169531391781927,-0.0290572269990685,-0.05687312571557997,-0.020442063235295647,0.3118279139949414,0.01160090570620301,0.051230871597174245,-0.14300549978686414,0.14449141339973515,-0.04749710193373269,-0.05657624672369888,0.02631063509173034,-0.07661599564276887,0.017898998609644376,0.025160405804354753,0.024007614905278613,0.029956701891707082,-0.006381801851874999,0.06332823421043574,-0.014645901950708815,-0.12439925055107133,0.1634454885227934
EREG,,,,,-0.01803294731619916,,0.03593999187592637,,,,,-0.032860952580065134,-0.02605634956587531,,,,,,-0.05438999728502199,-0.04316182034438062,,-0.05283092284000596,,-0.023395298970158483,-0.036517734231428074,
SPTAN1,0.0727765249993962,0.1501563185424676,0.14387578264880352,-0.027038860588247865,0.11147284221282035,0.17027190138619802,0.12905520018487368,0.02188595361475913,-0.1448662835329129,0.13464200432731363,0.03181918693322979,0.2386127874254551,0.11226739789504415,0.0037567844929089337,0.029716344734847674,0.13475551156005,0.002268876243179573,0.10499464963404702,0.045725373068610804,0.17241397085388005,0.08083911623921006,0.14969698486162397,0.059438424162157825,0.17960609943513603,0.07179507996290259,0.026599841668195283
PTH2,,,,,,,,,,,,,,,,,,,,,,0.01738365611107129,,,,
LIPC,0.012236490023198663,0.08036918799079251,0.039446436721592426,0.05276788461207403,,-0.0011999848074821895,0.05350003551362736,-0.013026925172730634,0.07850984615705929,0.04470076805603049,,-0.02421885192405249,0.04017562429233411,0.037433157749447554,-0.07053894961147572,0.008857058737709294,0.03571369477446958,-0.021003112202317,,,0.08513757770618499,,,0.07484930994495506,0.03987971259984035,
COL8A1,0.0005961570438784082,0.10013312958413807,-0.0031389920628232737,0.048007180133942846,-0.03913751341836584,0.02062147856577986,-0.0054095571246973685,0.055473386775945675,0.12832711979734326,-0.018433494500135917,0.005140835345913659,-0.07089865416261985,-0.13656055552159727,0.09885306491166247,-0.09665266540071606,0.013244517317372403,-0.05515898079327795,-0.009927016191208234,0.007150841234682847,0.018088330819196235,0.1527920748222303,0.02467090003383268,0.05445984711538096,-0.13390556793531827,0.15640831065471558,
GSTM2,0.012106671522670184,0.03751186720072623,0.009935590240504458,0.04599630242790169,-0.012931637672437853,0.03428406624663565,0.09686650665231789,0.015286927436366575,0.14698082545517388,-0.050905607763415135,-0.02298110894530325,-0.05739458709464945,0.14769703617723332,0.01792276648609842,0.007351046383224803,0.012402034963514509,0.09156338770447825,0.012277355888961235,0.01954850632090865,0.06891796902398759,-0.03483000457169004,0.027963661535214623,-0.02797585403760276,0.19001704315827292,-0.033151046194493515,
IL4,,,,,,,,,,,,,,,,0.1607604607228752,,,,,,,,,,
SPX,0.014890343843082927,0.05810139620139356,0.027693453264679858,-0.031079191361202834,,-0.010511729534549194,0.06368471032350995,-0.03888227736718007,-0.07038126234447564,0.09225039038223683,0.031021143269057434,0.0739895536175634,,-0.054730717890723674,0.005605738177402479,,,0.06095323656948659,-0.0038489332304360597,0.05541972339433229,-0.07771475841656524,0.13174596973853797,0.05413796137764695,0.37280057227067376,0.21901854766332157,0.03957535877084528
MFGE8,0.050708543492767544,-0.010873673896736673,0.05557595512706041,0.045714541609743725,0.03417772628402071,-0.017663217089837847,0.009067797572369403,0.027527741000638678,0.1376679123334974,0.013976238097616332,0.017120865933121315,0.05973182594806293,0.00988792673494988,0.030297162704000853,0.017698024828502492,0.12869614905642074,-0.03513085587217982,0.03200659738706097,0.0018763195858501364,0.06082841829986742,0.19982821201326076,-0.034664644391704004,0.0724803303277648,0.026998512692272346,0.04494202648636679,0.01710564063770133
TGFA,0.025807072249503214,0.06433611421550935,0.1607352680784386,0.005614902346674909,-0.03593907165928604,-0.05048930006377229,0.040517885383570616,0.04324465380521598,0.12503859973355586,-0.09530618120515894,-0.06967329166051613,-0.06310229882704652,0.050457024317795765,0.06873171565751875,0.03155090086770956,-0.037946468023878376,-0.04693019229678133,0.009825537294068688,0.10577569477632132,0.0991025498501121,-0.03729878974042828,-0.04389662347402835,-0.014285721130016023,0.21414456503178272,-0.04994550244308066,-0.05338092415337726
SLIT2,0.049554940553551016,-0.06441758830357779,0.045630153437099655,0.03282113102073609,0.0933562139298597,0.007677318380842856,0.02358896791349105,0.018287302713445433,-0.1193165507578173,0.0512919021042747,0.0039635039307470464,0.05181585481870034,0.028467071480773987,-0.0638439544585381,0.10272717624132635,-0.030647387412681297,-0.05510947592879772,0.02179561652266705,0.02577182254234635,0.017285766914734605,0.010352497476861915,-0.07601466704511985,-0.08869914668627216,-0.06680573173066855,-0.06127656506878273,-0.0442245265311378
PLTP,0.011240449210801777,0.11049484883223816,0.034488365553103424,-0.008587967925412353,0.06987934592485884,0.05602262091190289,-0.01903248455623875,-0.038382168919426356,0.40666925635236906,0.13149175646008238,0.12695082857835524,-0.10618265212604693,0.07982771117157668,-0.018402220349199062,-0.016788238614022708,-0.032496355995465236,0.11155876553631419,0.03386902599146707,-0.002227987638477787,-0.0096538073939719,0.20661662963431066,-0.13580843651617086,0.11183271818199797,0.0999150003885076,0.06555191968118229,0.09365334144406658
APOD,-0.05567532746855269,-0.19629249811285684,0.11137392230399526,0.013361777514125364,0.1035519842014146,0.11020298508298448,0.07382717070712132,0.010687510082062358,0.22873118445534998,0.1155685409316935,-0.012957901859530177,-0.06801277807808492,0.07932136890206798,0.05252321763801436,-0.2448073930867916,0.06063017156122319,0.056933942252107884,-0.06702422141645427,0.17957422393951794,0.23455466583015536,-0.1470234051278962,0.003902934985061709,-0.03379346834530259,-0.08373426286848426,-0.05220268906948935,-0.03601796527526459
B2M,-0.008558334436584972,-0.09856285572247182,0.16039996420424604,0.011202533795946788,0.14740529561427865,-0.0563547624510283,-0.11171049201386012,0.010107150310229124,0.48871896910646667,0.10467857396248027,0.09519743727007228,-0.1951019963939322,0.21873795589795475,0.047539213157066995,-0.07136793940186623,0.05877479373510892,-0.07065881700949367,0.038815081553169636,0.0318418423732979,0.02308644415046042,0.23642262442702366,-0.11133197825906835,0.10471162159224329,-0.2763994688601557,-0.24249376582485385,-0.014585366373045763
OMG,0.030842345803758362,0.07316505624771005,0.14766651558933838,-0.0311115142925542,0.07386863675688865,0.10920763688978745,0.11578272840477963,0.008773674414697867,-0.09444275088075699,0.17187531336429407,0.007704279561801677,-0.042320364374754525,0.060710813043786206,-0.006048169922826644,-0.0634156160882921,0.1770816748287294,-0.05285799161666065,-0.06540082738001211,0.14143627698276012,0.23765089644879864,-0.1665559592021302,0.093654583419135,0.06308392843312662,0.34818423498550694,0.03238875350219393,0.012343974208795627
CXCL3,-0.04039126342319679,-0.026565777745935364,-0.039091992643154785,0.0441920016416707,-0.06870599159294623,-0.17246649513539014,-0.03845274632933479,,-0.005494928302218392,-0.08366174918367372,-0.003183119740693533,0.015228127813254291,0.20365023533804982,0.007028228773873739,0.032075273184037086,0.03992888467850746,,,-0.04228827260694807,-0.08648804153650833,0.059810841297302374,-0.016761135727906194,0.07263425980593376,0.07091688225248381,-0.002574483342325685,
CXCL10,0.03623325851256341,0.026681803690530383,0.12826952953964002,-0.037021570652280414,,-0.04385445379674829,-0.07993302385182498,0.042472521372422065,0.3945518545573569,0.0072738138145719495,0.05174027458696873,-0.051020095206868316,0.028322134307213472,-0.022526162850877975,0.008302460612958907,-0.014182697858285914,-0.014379261423067377,0.05140883791801305,0.05440902449299544,-0.010615465560028667,-0.06410714570303404,0.04746028105254258,,0.1233884541375376,0.06689534503360194,
RSPO3,,,-0.03268459295749293,,-0.04654939700285405,-0.01420919619257176,0.07418735574646064,-0.014915373145928782,-0.10697600881715932,-0.01197961618651917,0.003242005806598272,0.13138945697460175,,-0.0325295661314994,,,,,0.10962146071726311,0.047604460296978034,,0.008117082482503101,0.0023939240947709797,0.05530609954012997,-0.021074995390900585,-0.0388123747298931
CORT,0.06096736633965793,-0.0207082440635663,0.049549839882564374,0.014784375887352987,0.06453285926021593,0.05272765633703219,0.03371663273888826,0.048043708211270034,-0.15716873185326172,-0.02317929620524093,0.06504482145975668,-0.04239562039591456,,0.0072975886263736325,,,,,0.08026393540720868,0.09571108504163713,,0.0676947638759973,0.05941444334813247,,,-0.04144532981290725
NCAN,0.07339635308021591,0.09387199907492481,0.2667615663754094,-0.013804210989087483,0.04362925589480039,0.08536152710744137,0.08518791137172974,0.010644892749960964,0.1598975317509459,-0.07466895361303266,-0.003407714625578007,0.10712944155047376,,0.1717115566748168,-0.02007108950996655,0.07313052312846056,-0.10712013403848986,0.10004605475862621,0.1417295768029002,0.27061457206789313,0.1405070503531464,0.13620647446456674,0.038577133050187895,0.3412144878128276,0.16551141205459374,-0.05113101870030788
PRG4,,0.041067272095975674,-0.013062716322585715,,0.024182936301182754,-0.02175011698167197,-0.007810558915982421,,0.06528954554363942,-0.03330199452083286,,,,0.07436694186665083,,,,,0.019569123942259344,0.009583602006485274,,-0.04209971722080147,,0.05127695235334895,0.0015800972678991505,
ZG16B,,,0.0035649679851201253,0.016569704119231414,,0.015143290219525802,,,-0.04426439059537885,0.02162269933571308,,,0.11127875170721727,,,,,0.062127668969490416,,,,,,0.00030610801218501177,0.011246337480077096,
TGM2,0.020375030253046315,-0.04181600140384718,-0.042709941781920696,0.07987475602202962,-0.020048690585699813,-0.0894184587046588,-0.10970869549336869,0.03972312401891633,0.2026737096776179,0.019571421130173162,0.046750982835138705,-0.044534221309850526,0.04438453365664305,-0.037760530946213004,0.0013597705189818234,-0.12223491321248374,0.02159591122149506,0.08576596138438325,0.056475590741308375,-0.09942914385956819,0.1105254127358169,-0.0039481234468754425,0.09112855799889737,-0.04288863247172418,-0.02291024967587493,-0.05988617521402924
VEGFC,0.14454981375275558,-0.025710419565945632,-0.01202092157307889,0.010510329348762929,0.03408599404864407,0.008405651223969362,-0.024162254023746926,0.05615518456223562,0.07999576644161428,-0.005188762696138024,0.000340685945003418,0.05682493944000714,0.017575251407328973,-0.031789712960747764,0.06502932850062192,0.02207359750713209,0.014074782464664136,0.04059625213599669,0.01848315680009679,3.3917105681504306e-05,0.07471000875845236,-0.003355316163861958,,0.012410721445013418,0.059338668378357835,
WNT6,,0.026858684842338984,-0.010956890156519898,0.03406065271640543,-0.008905606491227317,-0.03272187631698116,0.006255592805909707,0.004794441694022787,0.07689560185774251,0.015231567354885438,,,-0.06431447373040651,-0.0430359831517934,,0.05111499871649235,,-0.015507942918794534,-0.026310565853602263,0.029075830884250503,,-0.02255675376630957,,0.0645303616497088,-0.0052024030084533894,
NRG4,,-0.015062535661532876,-0.053308115875240154,,-0.03489127533668672,0.005060927170618901,0.017638569002442935,-0.04136980662223791,0.03260285373450651,-0.03650163027542205,0.012009644132817559,0.09825319254446523,,-0.026757904442563898,,,-0.06454573707711941,,,,0.06729697839842527,-0.011505018410664779,,0.044416454107415265,-0.02736619801587766,
PMCH,,,0.006272944624124508,,,0.03302981249473442,,,,0.019907948398314435,,,,,,,,,0.02329861190629866,-0.004965043837405002,,0.007949408910323839,,0.027708383069283627,-0.014881528092373747,
COL9A1,0.07736030970710563,0.04151056885494907,0.05888854084188094,-0.018889712063215977,-0.0009438567639367007,0.012724810429519751,0.08325536767618909,0.06925562888379604,0.12079146412087834,0.006078584145999991,0.055188460768953174,0.03738472715683285,,-0.01157535642461299,0.015816310016529906,-0.028440255908843814,0.018406255402198844,0.020098574708216698,0.14642460999937257,0.1514620243767325,0.07198375768742965,-0.01828951497176933,,0.29875664009184194,0.1291460222555906,-0.06314768993760178
GDF11,-0.07282654226667504,0.03220477207022085,0.05283756103766972,-0.035148296293131334,0.06953876723686594,0.06823874497014498,0.0005155135550959938,0.026621326129627858,0.2756779436270373,-0.002484262063386978,0.055339432483024184,0.05549219917934011,0.03353853419373193,0.02979759168834466,0.04799777699759048,0.01974257868770651,-0.028949757163276694,0.047246567998824734,0.026900912261174748,0.0400569127119021,0.041007775821374076,-0.008286491738692366,-0.04263187230609532,0.18021991320682246,-0.017785163702775008,0.000513493070081646
RAET1E,,,,,,,,,,,,,,,,,,,,,,,,-0.02387270577477662,,
IL24,,,,,,,,,,,,,-0.03956771959591327,,,,,,-0.04516244983171925,-0.043622329781347204,,,,,0.054964159616514054,
SORBS1,-0.010111105198885315,0.07099916876639702,0.09156773263028813,0.04720837324672183,0.1012255769690601,0.13375289238859292,-0.03505461759072028,-0.0035452559677161487,-0.035661689596310484,0.07047067584487991,-0.030172792402954382,-0.04658340741200743,0.10528092738731933,0.05868755284189723,-0.04316646871167762,0.1493662745230008,-0.011064642468745983,0.030998160857646215,0.004233779158139045,-0.004094213271026087,0.004703568475020821,-0.09100501804304285,-0.04006632014618538,0.13649155687239145,0.07299358900900817,0.08749842588257403
DLL1,0.030347883306035328,0.007589045603394891,0.14905292343014476,0.006727591834038757,0.013932906758237933,0.1185680551390074,0.03842612592938822,0.02042801506068867,0.2327576938838435,0.06543627063620121,-0.003449419131120336,-0.023089965251589996,-0.022200667816832727,0.11128788355273918,0.1181662309837326,-0.08018544537447078,0.03732949779947707,-0.03091927511465451,0.1826019251138525,0.1859711555286165,-0.0420551950789528,0.00644637728662543,-0.044356085112134715,0.18325714585534314,-0.045147017194799764,0.14204870223197977
TLN1,0.04296819429087681,0.07816877252963335,0.033807140891234,-0.01980248332721263,-0.015974230344004227,0.06459509246896103,-0.04572590775128502,0.04775955918699785,0.3826598103611382,-0.016961047968352922,0.054857897883535525,-0.08744750138003213,0.06547938888669338,0.06370511447660455,0.004325452084506534,-0.0029578360665971416,0.03292146808737572,0.009005441329105756,-0.11671575261270231,-0.06234519412348534,0.032816318548148225,-0.02875793560382748,0.018706307985633094,-0.1288707370054477,-0.11436020188605074,0.09400778793014622
COL2A1,-0.025961255624702674,-0.0349184529182229,0.18242757951121433,,,,0.0318547892575357,0.03527613307572155,0.036984728096029894,,,,,0.018480654657020933,,,,,0.06474379935953414,-0.03152688985862217,,-0.008817934261572074,,0.053095008825379895,0.007320408298957095,
SHH,,,,,,-0.03214335864618292,-0.05796016061203041,0.0053799763196558,0.029739327751219652,-0.020484733119371573,0.016092106645331183,,,-0.04523687956111149,-0.029557160074732833,-0.10316136049301945,,,-0.030972996787326016,-0.025088874043442694,0.09885506672199608,-0.04808418001019113,,0.14751700953989785,-0.04566279965486274,
PON2,0.06529630425659669,0.13250240273384964,0.2554640429742612,0.026025887589342284,0.07665844312337865,0.1963999837170949,0.13715905129233086,-0.03721841105189621,0.38632653825345453,-0.002247799488255798,0.022254904643778026,-0.09935692264219205,0.15183463351665438,0.19402213574529686,-0.05224737032434544,0.11002669635607758,-0.0006915209833073679,0.10495103150550629,0.13611356840015906,0.1401230901481007,0.11528226348011616,0.034199858933007574,-0.0035509703346624545,0.28713490611330533,0.3375784731169081,0.07111558292379591
ICAM5,,0.018595487966549917,-0.003971140701768697,-0.020897409750290488,-0.027531849316301017,0.06201289846597786,0.06513624563390508,-0.06094293267348477,-0.1650470859046575,0.05339332219924436,0.03750121557210988,0.13758911310305025,-0.015268270394966473,-0.0026218674432967703,,,,,0.030044442434544957,0.030757764918888018,,0.01551662971677629,-0.06946262634725789,0.05327927528540313,-0.02189970539173838,0.03246784682343904
HPX,0.030149664368134724,-0.0022499916829321906,0.03286221385233919,,0.010689621006319634,-0.01877933437802386,0.0008486857396808324,-0.01221651018339369,0.125244520425587,-0.021128405422126687,-0.027154906431039995,,0.017438857186284747,0.07502051778523931,-0.06211195146182966,0.05496519538676924,0.06559877693441069,-0.01947741618613642,0.00538185437175955,0.08812826430919717,0.0443314742804151,-0.03530239250971625,,0.0901956990171166,0.04122371962141516,
SFRP2,,0.0283612644498996,0.005127781360916822,,,0.008616050858874152,,-0.018535080004767796,-0.00609536264989259,-0.01934177642451079,-0.012538918402576057,-0.06871670029023633,0.05164660119662381,0.026370564620937745,-0.06312267583892871,0.037802503986678185,,0.03572913178550347,-0.009500703986526755,0.010101428824669873,-0.09433505748507647,-0.10279770974986076,-0.04926790727064866,0.15141272891820048,-0.05694620286954277,0.0012414874688260432
CFC1,,,,,,,,-0.002173354895205811,,0.011127195455651639,,0.04101968293685367,,,,,,,,,,,,,-0.04424963549746898,
CD70,,,-0.054910465896157425,,,-0.08983735566276596,,,,-0.021916887143850153,,,0.026078457592780425,,,,-0.018218633667841818,,0.027113112112124856,0.004254833228481951,,-0.09053815159126684,,0.0158655644314361,0.018567563034951082,
HP,0.04286466538096579,0.06999525109562464,0.006618859268665525,,0.04518637172409049,-0.043477197414896966,0.0029702503303788968,,0.1556339241246533,0.014025777501123752,-0.017352846816110965,-0.005466064486962801,,0.028808124396973785,0.03854975068309991,0.11076983084927644,-0.04136392900939519,0.037206466864214145,-0.033428992195414314,-0.021633351909825363,0.03293607267323237,-0.020560661690565772,,0.05157984977494761,-0.08963695934957422,
CXCL2,0.02003892245766895,0.004567191658871403,0.13122653485160524,0.007172856735322408,0.001403099001010637,-0.051182493703374646,0.022982470261567044,0.01811195354751252,0.1235551558184628,-0.04391406165557635,0.017985239361755785,-0.05208284917326542,0.15617947366323934,0.02468413753569038,-0.061199368375435846,-0.05963667187770723,0.008753801402364779,,0.021197250729557946,-0.05189079250873145,0.0157562308411615,-0.03322794278765579,0.006584886876968027,0.05783481889549588,-0.06908907552529182,-0.001601484839872332
NPPB,,,-0.030571083483797532,,-0.12618354363317985,-0.15719912880641262,,,,-0.011276784742144575,,,,0.031386898670896834,,,,,-0.02437250347573715,-0.008222561308780213,,-0.04518668619093578,,0.01069241063950367,,
CCK,0.02595843969647159,-0.134085706489937,0.18758205379085735,-0.012793725293468734,0.13111846016240838,0.04148137617799783,0.12014697201752328,-0.0335524927973525,-0.42273084544494244,0.06844145329337677,-0.04674956277223068,0.18797432062530942,,-0.07112539263701616,0.03831763675315946,,,-0.005704666683251861,0.036018584655310916,0.10374192864096073,-0.028649587720843733,0.07994586835697205,0.04781578909265985,0.03109050061145583,-0.08701473310973984,-0.02367966710666735
SEMA6A,0.031629285796611006,0.17136545445598292,0.060630943473160455,-0.034859713019785105,0.07482803349962372,0.02830940406687092,0.06609782133934565,0.03748375657891715,0.30759100222557956,-0.01925643313805907,0.030792303283400813,-0.013419743290029564,0.10304349482379105,0.10804272976806059,0.03263823169218641,0.07364790078165927,-0.04048344096419732,0.028711874183711183,0.0703082091523552,0.09999133428846048,-0.04231043380406065,0.032790538398732166,0.05638723223611092,0.23996498355707868,0.06209373693924732,0.03555401543175317
IRAK4,0.0223795974206935,0.07241452884175992,0.06849381110842631,-0.002533621873540139,0.026610671075516637,0.011235002103539211,-0.015762443159668564,0.0164840351126304,0.2223498028066404,0.0014170582855146715,0.041166528268777466,-0.05494511935796162,0.07979820405386075,0.04550512916347281,0.09313014984426125,-0.024228651049786547,-0.0018155784015807758,0.1268519730737764,0.005325206251259189,0.10921672162499964,0.03387090486585516,-0.010102517632227751,-0.03761652659759306,0.21604683731578642,0.08906527637331728,0.04720248196092788
GSTP1,0.04754388686746843,0.0234673182087913,0.0876747795920427,0.019700741219890558,-0.02166715097078347,0.021754404233081885,0.032360644576569876,0.041772648030055023,0.3955862580018143,0.0027986190146083627,0.00283419720200878,-0.12375082550420327,0.07284800016343922,0.09207143972054169,0.052565769616817096,-0.06745315879958935,-0.03915335535069922,-0.02470483434424751,0.08446372751778697,0.184248222480577,-0.08285950573409183,-0.031018904168880552,0.14614757016949717,0.2299084084468589,0.12138039596316078,-0.03463112300478793
VCAM1,0.03341900041681091,0.05454761625625807,0.03010775210098252,0.024601470091740213,0.007793848007295806,0.021374156198402584,-0.04441683185885098,-0.006145354617470624,0.4012245232526655,0.08878793865788175,0.04526858190778759,-0.046274947696374594,-0.03372499798317554,-0.010450627988241494,0.05010655466842724,0.004199573074851519,-0.0031353145313246108,0.06881682165127892,0.03381056054404229,-0.052470797559010074,0.026248122318718065,0.08255259979311097,-0.010942558019685938,0.2502337421657204,0.08229523868601042,-0.10294312841259627
NXPH3,0.08610965534196698,0.03994381398354879,0.024089697750849348,0.036984634012209555,-0.022414704861938587,-0.023566656742466094,-0.0067637417339152526,0.023900822010030326,0.14831297595943388,0.016732265786261413,0.031952226936498705,0.031735883821550806,0.01644679291516542,0.0712338605484913,-0.07526118378062674,0.07955324831322062,0.04726090070350893,0.07349818618231428,0.08199337612671108,0.12805354046270684,0.038495493328970634,-0.014434304849676075,0.1490085345714527,0.3601048926036481,0.06308179262570036,0.11332455273157249
MTMR4,0.01280843309979143,-0.013777814068065563,0.1071514387411224,0.042172731166016345,0.07406237770851946,0.00678298477007869,-0.011791825881167763,0.044921425573690894,0.10962734773700766,0.029679549048676365,0.009216138175767996,0.021130254049493785,0.05341970802499963,0.017002236435695726,0.13158957831028587,0.07927718919266359,0.09432415752200442,0.022564042645848006,-0.002419464104244553,0.08778997307221093,0.03633005858298158,0.03815568386796667,-0.01985235353697743,0.14185764187328048,0.07088168117266143,-0.06721790990896849
LAMC2,,-0.0013642834637557783,-0.0002893499905691707,,,-0.08727047217103426,,0.003982782382675877,,0.04550128678547352,,,0.014159133421581137,,,,0.015896050367203936,,-0.05552311223544045,0.007245244504877528,0.09722002732910874,0.009606632193403778,,0.021454040894670217,-0.005262998315357765,
IL10,-0.03475512518015851,0.014786524352601613,0.06810184340444633,0.006410432136129263,-0.01621235617474273,-0.013042746462426797,-0.018753212880154472,,0.01698300436353069,0.02737523807130275,,-0.05667876952488895,0.05168718643038582,0.004952263551750694,-0.04096611676822504,0.11115586703068607,-0.046722191990964994,-0.03588542921771081,-0.00846644304397841,0.057787949735853335,0.06399951767973233,0.05335314684179206,,0.048013202137778634,0.0066154727414559,
SEMA4D,-0.0029752414919773764,0.03223180315813378,0.0491244382686526,0.01887169026045358,0.01938770125181316,0.07287510235183092,-0.027480330309890673,-0.013897597560220189,-0.09825143716603515,0.040877258615696105,-0.0037394387515131654,-0.10346462317930125,0.08629287587680852,0.09689334133838244,-0.06484253604441775,0.0968221052386712,0.011067265527954827,0.010081150104994994,0.1364286196187131,0.15053998784943937,-0.10908695456950293,0.15381271469653207,0.10458063859203898,0.17573937249348867,0.04654258983438635,0.05460080662334732
TRH,0.017220464192324172,0.018936987022368224,-0.06694070122536185,,-0.03595115458297632,-0.022907754090614463,0.0036369275238994493,0.0500210557978655,0.10171039702014663,-0.01578089616429816,,0.028640928356501227,,0.10768682571502802,-0.01480176931127898,-0.07545464036529395,,,0.05344222002118853,0.09885603620664837,0.21246411441959379,0.0340808066649001,-0.021400284917228757,0.06768928655819778,-0.16745374593465656,
SEMA6D,0.07829071401683498,0.14342673281939208,0.11633480791623015,-0.014904445397335578,0.059431437297972935,0.08693957808593697,0.08024377106867761,0.0026387876109037547,0.22706809680625742,0.052211771305210306,0.03195644900452518,0.08869036020090429,0.07622423842509932,0.09024818293312384,0.034671010288495174,0.03908605889317002,-0.046127195355809565,0.07180831061199398,0.05021584858080606,0.011137997600647872,0.0377183780802297,0.05678324850630495,0.11296525948792557,0.220867027394181,0.032456004488583136,0.10166869982319385
CEL,,,,,-0.03945207136280045,,-0.015914427565766665,,,,,,,,,-0.011161615377275277,0.0901900221423349,0.10943445947027042,0.027179686718493693,0.03461306427072434,0.03303913777259736,-0.026765335939806414,,0.06304582806202903,0.07872482489678591,
PDCD1LG2,0.009405077717321053,0.03222897587026744,0.044825349443233846,-0.01941734415451005,0.06805847563086281,0.0050959862992382265,0.017072166908199276,-0.0025580182157300545,0.15086828933814606,0.019988517846552933,0.028688065138315545,0.03642140042701414,0.004020793885484022,0.040143674760824116,-0.036176937949332216,0.0036530170137179865,-0.047773318905230636,0.02612608149882912,0.05981699223387148,0.03815168275790156,0.0823300944081354,0.01328849505065756,,0.14321569648170832,0.043416096932647544,
SPINT1,0.0020480806089344084,-0.014788866283048856,-0.0030384320368413696,-0.01579523853112233,0.13007997730113308,0.02756987941082873,0.0005445295414420101,-0.018780850080037152,0.14992543278684523,-0.012776708597671596,-0.041365137600635156,-0.016546210390922356,0.06770576407785385,0.0033013857101527296,0.019430330611370505,-0.13191736176911129,0.042590816422680436,0.028119255897363627,0.1375752144958035,0.07096683540790186,0.03232547749381634,-0.03834499037763399,,0.11771041061920774,-0.015478736037106389,
CTHRC1,0.032030855098847,-0.08366707657813764,0.07527586702454418,0.00021193809262585417,0.09167322974079542,0.008311433356111616,0.0327100433612063,0.07445750511921767,0.23832907178299825,-0.012608991434707294,0.009513147894929347,-0.05140574715481758,-0.16519453754970095,0.04314763103090551,-0.0028828887527457157,0.002711074090159822,0.043469888425089365,0.04540959307640306,0.09756556418613498,0.0020482536642052913,0.1581012461735678,-0.07388678570308597,,0.03504734363108188,-0.05339474097694857,0.10701849103928827
PODXL,0.036845333003307244,0.060125881809513976,0.16245777527300226,-0.0494391492063461,0.1051104741279455,0.05367047956063881,0.0048041870718416564,0.04186864433807774,0.3969818346860631,0.00659419776619333,0.019122207018680146,0.0887858688572242,0.11361426544068828,0.04041591667795115,0.08784913768653593,0.0692242171896274,0.008265210764775923,0.04385227775667451,-0.011284051671666899,0.020749884926496587,0.17971100574839682,-0.012796966880985005,0.16230905648131955,0.09143417897343888,-0.0950508994650101,-0.016079697808870783
JAM3,-0.03681581455465758,0.06486777921446292,0.045642332813871075,0.024056301839749016,0.09060039394531506,0.09022700737346316,0.006655803516940522,-0.013017316706643316,0.33864918565421626,-0.043787282486815696,0.04011183776141998,-0.11012499651905963,-0.018437485241080846,0.04252500355371321,-0.04069579484856578,0.024086304763533368,-0.02348560385441293,-0.06840661467320726,-0.03411595577644771,-0.02817322450066142,-0.08045795385758962,-0.08798969898237713,-0.008536595768160543,-0.049892423749805924,-0.037336432657321984,0.02943763160260473
TGFB2,0.016422958522092385,0.07771284014864076,-0.01708691041840884,0.004690899406260197,0.023087681961880976,0.07209136158278877,0.0007742586273596374,0.017378069148902088,0.41317029843481634,0.003527944073969114,0.008255140578414064,-0.057505860572511745,0.032462020197737314,0.04904540359798845,-0.015254261810154034,0.02048640252466811,0.031292895250411124,0.05552487144539203,-0.04061028136221994,0.09231331379091806,0.13866317171517778,0.14532244236746655,0.06317568318679091,0.018921715330872148,0.06773227919871505,0.08121056552565305
COL18A1,0.058965483930755076,-0.03312061953721452,0.12079153440725626,0.045197262620337054,0.11598517258216876,-0.007308871404351498,0.014183012357480778,0.014577137306137088,0.27181343579394684,-0.10416292524727906,-0.019692829943245272,-0.04985722681443397,0.15840545937471626,0.014187967975117705,-0.05532285887671412,0.0731167113459852,0.05325064456243677,0.0030228416375792954,0.02239629466500083,-0.09564412135869986,0.2182218483356915,-0.117008270913192,-0.0589731412987683,-0.18026887459321983,-0.13337694907360015,-0.03997081225732548
NODAL,-0.045483349299409795,,0.048934602475236476,-0.0006103931680614281,,0.03541972060048201,0.033400280177949535,0.059799660664458486,0.20950000780568087,,,,,0.05440137619625604,-0.060101875704563615,0.06178975339231603,-0.021813877886118594,0.09407169141790164,0.04563786314206384,0.04581897153214959,0.112137452159004,-0.008902023967616938,,0.06521229467888236,0.002408140703591888,
INHBB,0.039625132104745685,0.05780669765516111,-0.010811593871328677,-0.003211240665809078,0.10994151623103016,-0.058237000823035574,-0.010527115762114729,0.048272458599907545,0.20515160311489594,0.10457890587061881,0.020707729981113192,0.06072383709821387,0.06141373558769186,0.08328317810146779,-0.05656831644390731,-0.10573522242699927,0.030543301851673713,0.10848803186629696,0.009032033973243892,-0.07196379896771131,0.057547420427939144,-0.025910795487903603,-0.004010415300188664,0.32723567349327326,0.04214708063918129,0.019664422082254825
LCN1,,,0.010360723802446776,,,,,,0.004493152371830379,,,,,,0.03182511772604189,,,,0.00811989900359096,0.06299097397778038,,,,-0.01658670193878261,0.00915691246494788,
ARF4,0.03814536454466725,0.03423834736998184,-0.023504439117100095,-0.022397101047905713,-0.09990790059776371,-0.03962378409091638,-0.01034764163880392,-0.039472418872952865,0.2588869914523171,0.015470645457813317,-0.026256876973990918,-0.03117740332793884,0.1662210634543523,0.07542384388631412,0.013916538944226554,0.0004251289951293143,-0.03133870638475713,0.0850565369551218,0.08387206247969316,0.1917671852173353,0.0753472106061547,0.03225361446748141,-0.07009903865901204,-0.1360509790456475,-0.08325545602716183,-0.02655909782760358
CXCL14,0.06639991463393659,-0.08208094389549599,-0.11865647259318035,0.04727609852079944,0.04689261456388698,-0.02112984420395014,-0.024777636197668686,-0.005363570999495708,-0.07179312133606028,-0.059109316045269936,-0.03784233705570092,0.05117112735670959,-0.06245278229484141,-0.09041338223345022,-0.011091036709006312,0.1597536954939548,0.10122313301332153,0.017603828501091223,-0.1407174297231361,-0.1258982763458864,0.22080411387006563,-0.02801444370935266,-0.004804564721613554,0.1384202199674762,0.255824682034318,0.02708496604610069
LIF,0.0635770559376623,-0.07013543248602812,-0.1110176918234791,-0.04780432776742979,0.01889792070166078,-0.12369814446766982,-0.07359443570927125,-0.00842962888092865,0.18724181400141787,-0.07440466104003486,-0.029660677375950198,0.0005449212404024996,0.013569997395442061,0.033893344413818145,-0.015192155088365342,-0.07332136230294004,0.010265523846635767,-0.027970137653197082,-0.052917366283021,-0.11840408929711353,0.1379502480932802,-0.07196666609731078,0.05916013571393449,-0.15539015400090592,0.061757517572548104,
IL17B,,-0.016261365155543373,,,0.022738744088727933,,,,0.11587488020004276,,,,-0.004947669788532965,,-0.10834927361844558,0.03592947238453379,-0.0335390773331874,,0.007498771131712588,0.0358009409614194,,-0.03064458499556637,,0.031356104194963555,0.047853236368598714,
MMP1,,,-0.01847679668587987,,-0.032970429023973596,,-0.028815377309805143,,,,,,-0.18559215181924776,,0.016481127867034106,0.03332457233045164,,,0.02563604888798113,-0.08387369038686399,,0.005108922473576693,,-0.007610948753295663,-0.0034407990314676406,
MATN1,,0.0007335008954408156,0.0043059996151842625,,-0.02768412221272,,,0.09194383512010533,-0.03314860821095132,0.013744091098798188,,,0.002758220809693411,-0.027860026759100407,,,-0.008791307290543709,,0.050860078962989094,-0.015583394348650796,-0.03123078151382454,-0.04864582734112681,,-0.01167143677688888,0.038616627156017796,
ADAM28,0.0019749139467864587,-0.04193034357839698,0.03690011045384982,0.012553474274341407,-0.01836768494591921,0.029154832702424402,0.011165452071449321,-0.006817885709506698,0.2178956459893625,0.0049532494671348576,0.027717035430868075,-0.0925573850461252,0.09347246462448,0.04851789702251826,-0.03521859029068153,-0.056370061073981036,0.007860802889085566,0.12649369516833966,0.024501841866718197,0.0310391885798845,0.0007986269880878434,0.011533506781253335,0.045897761520400655,-0.005797989056454765,0.0609809646280555,0.03755198906033119
TCN2,0.002382428688854091,0.04917956806934878,0.14074574993747693,0.07079241636755339,-0.04340138607319022,-0.023432870074452758,0.05905710793416628,0.054355472767907344,0.3291288379810747,0.023995674228666587,-0.007753791998546779,-0.02265442932772865,0.13842357989877682,-0.02464112315386031,0.024599264046460238,0.04943620705440566,0.027726223468089124,0.12414859755321125,0.08375795733545237,-0.030566280161198833,0.1686138219774219,0.07061940337067604,0.04198873271906061,0.03593383704822509,0.07950404840062449,-0.0587812414609626
THPO,,,0.01890461697315971,,,-0.004571244210180041,,0.036968179461920464,0.05278130220646997,0.015553876802604566,-0.006978178644008651,-0.027578091062406197,,-0.0057587701246701005,,0.008383886969970476,-0.018514598685682695,-0.05322702010893938,,,,-0.031952925245616375,,0.0639417249591476,-0.047940529174757475,
CUBN,0.0837451757293904,0.11039802025726068,0.0707277244356642,0.001029719175783036,0.06313994151160997,0.016039392305469868,0.07852526280925465,0.04349869224381768,0.15769984875583937,-0.005686873426233328,0.06113896895835522,0.03724966097250175,0.08930386107887313,0.007706200852969747,0.0694648730335083,0.10205756661918278,0.02111368215759316,0.1131647366013424,0.03243105419780877,0.1207113830956223,0.11540325462851096,-0.020702349608223546,-0.04341518961683563,0.17810005794928216,0.079640545134358,
TIMP3,0.05965576762211628,0.13114381678588707,0.004513224822143147,0.05751785250359669,-0.004190576032282944,-0.07403194408450475,0.13721302339801067,0.014361487084413328,0.24267553790408627,0.0781995187469326,0.018313740167647297,0.02899640770372825,-0.0022195575362760327,-0.007058233462766169,-0.05831146363966818,0.06927087854366738,-0.014800789227313937,0.003306901160453641,0.06564415745032837,-0.03274795688758989,0.17889848943325645,0.006796081857274999,0.03014359685112842,-0.08539218008607673,-0.021703460006810983,-0.08984480405124451
PIGF,0.050183940386785655,0.06815699545979932,0.14730393635794709,0.023017989924522062,0.1051902136917705,0.07235817851086222,0.044949835019070315,0.07978157211925414,0.21897324864654313,0.016438571564702686,-0.009298132181663525,0.04906217296913516,0.05651606413229279,0.10863974058246506,0.10277146779561848,0.030223995049121346,-0.020143861145485994,-0.009010887829010343,0.11641259477551077,0.09484543218510247,0.033125670699424126,0.023471535589339308,0.08114451015685072,0.25128325054358286,0.06629207695163276,0.0448336913242661
CRH,,,0.007123286933519473,-0.025140069494631174,,0.019632937562826944,0.06305597770168653,-0.01207336968655063,-0.10686204457154393,-0.01439588690894291,0.03854023080441691,0.07594136950787277,,0.00648269412409636,,,,,-0.007828450648274728,0.023353685652719947,0.04354059538832905,0.056202576726092926,6.886361480622421e-05,0.03613607614886854,-0.030485743352508258,0.09305603500057069
BDNF,,-0.04384837079390585,0.04049749089315049,-0.0174177121870067,0.009949934439725293,0.03546910835917495,0.03311652756485459,0.028100723360666637,-0.3313682777483015,-0.030792179131185593,0.02635671285891036,0.039159487434551325,0.060972443418574336,0.027848213875498375,0.008286372988381757,-0.08826070990986544,,,0.03850323440153637,0.051605811295075146,0.13943486289531684,-0.06023592583412676,0.001612228335748481,0.021021390550411863,-0.06956224163463678,0.02102541514329406
CCL5,-0.04268224799658271,-0.04947225335612872,0.12604936258037638,0.009084836196140655,,-0.003120594582792175,-0.015213177873220496,0.052723388416947695,0.15353922956548746,0.02641738936234918,0.04462778052496869,-0.06309568853091624,0.13370701311869437,-0.0010422100816024418,0.009890333576402212,0.0013113238087489505,0.012051974695686807,0.08662849706674154,0.054156436766736274,0.03884177260273437,0.014125538382614699,0.013021166410063473,0.04115061678796126,0.1116684939249898,-0.04934136860294496,
GAD1,0.06204215485855453,-0.04982690805814676,0.15783035997982367,-0.044591820136659126,0.03318158525082783,0.0542651360857979,0.061706006906976724,-0.009426349542789455,-0.28323797608271567,0.11388924997193699,-0.07753696018933083,0.13974972549386913,0.05769601894448103,-0.1065819734542015,-0.00895823108816762,0.14116151645072955,0.04576317945708457,0.03734491396540976,-0.0023862741621455963,0.10693054800592484,0.04596680689209684,-0.0705383196300263,0.008805128539654,0.13272780280293414,-0.07257324592677143,0.01948413532294821
COL14A1,0.05310138681581274,0.0784145049869509,0.00220494772818843,-0.02446434303795841,0.09731335785835121,-0.015491369990170431,-0.017659274106050678,-0.025176093229377482,0.17058030395102955,-0.0203072829105343,0.02134478348850715,-0.040119104620876124,-0.016815092105128864,0.024398393875157354,-0.05768000652833213,-0.014753769568019015,-0.005709712991340123,0.018537622066732692,0.023376757333007505,-0.0459033490439668,0.07522305336104264,-0.09509560146800648,,0.08979758458108546,0.04797741032220185,
HLA-A,0.036822029409205,0.19895060430860084,-0.01737167391885551,0.05492251068505474,0.08342379489379607,-0.176858506630474,-0.14332766059870244,-0.030931713933610026,0.48025388997725255,0.03372653617874678,0.06121130560620188,-0.1874390199914987,0.03357401240747265,0.039048454884344566,-0.03314329162941616,0.04690325446385401,0.09086009203552986,0.03936810783705161,-0.137815067989923,-0.24290287393845034,0.29249368239068724,-0.16168526331419453,0.10650062575322787,-0.148303787251753,-0.2773295284074027,0.07216357956232623
CD5L,-0.03184645570551568,,-0.00013101665070444692,0.009496220538571408,,,,,,,,-0.031242308831672727,,,,,,-0.060757180758555025,,,,,,,,
FGF18,,,-0.07010845640641936,,-0.035951114435904145,-0.031847155517753814,0.0357377300876458,0.044133649673177094,,0.006669148062172149,,,-0.04108439956823832,,,,,,0.026924030520991012,0.026547609857735504,,0.06274335410478116,,0.03408354458360816,-0.03202364175195732,
ADM,0.02401017430076091,0.10034905061671631,-0.24471419329283103,0.02203068971348484,-0.1098687621259819,-0.16299347245167292,-0.09742704075103516,0.06364419988772986,0.21500621891066432,-0.1571756037094867,0.024978761234453233,0.004924994796095251,-0.11708411555779981,0.05444928995249005,0.029183969008008744,-0.0941338248214198,0.014000054350063306,0.045622064945965664,-0.10866404194475683,-0.22532986284809162,0.14909772603051952,-0.04275896087932226,0.10527623504259756,-0.058405405442693896,0.06836276544957073,0.08491516270116158
CCL15,,,0.03564139434807436,,,,,,,,0.018328771425964733,,,,0.03843381385233142,,,,,,,,,-0.020045084991870483,,
GNAI2,-0.0006678476801753553,0.04995719213143901,0.059503112580122704,-0.051771856104351005,0.03750340153307437,0.04720408135207725,0.032946842163890364,0.000336631699341018,0.39536578014375673,0.030348273950358273,0.08671179195584593,-0.1117078712195953,0.018670330015712215,0.14389046859425436,-0.06189233554107163,-0.011413831069763188,-0.05231528406679041,0.06957799650229894,-0.010745374858601912,-0.025642167867027752,0.07150152144325475,-0.11417145885934624,0.08065516047507686,-0.003600395176837478,-0.02605649402365682,-0.023979197503303008
HDC,,,,,,,,,0.1974964744500672,,-0.011427376786445792,,,,,,-0.018506942009937816,,,,,,,0.25044970563132507,0.024840550841310555,
COL11A1,0.03468747667064212,,0.01619381033931538,-0.04883667930811293,0.024889999806567056,0.004171704875092915,-0.004833951871866067,0.03673627404855193,-0.04613234352581524,0.03171729656415579,0.0010928969368445985,0.04260751827569001,0.01733776879634176,0.013194789517465558,-0.00030133050142187184,0.12148196679659501,,-0.0717418242616832,0.04871095015383389,0.0017672793858010357,-0.015560718751321293,-0.07594764820184703,,0.16176819660888153,0.04062641250012435,-0.01190094625923652
NUCB2,0.0659524162741161,-0.055185065197751515,-0.09481985579323299,0.023527530355941784,-0.008341913610043416,-0.03970881543071991,-0.03906607298237225,0.018429741222367277,0.2094697055096023,-0.003517198067941192,0.007145480170201063,0.026646931658513423,-0.04265797043584167,0.02285432921838871,-0.012073465704791096,-0.15076854442920443,0.0048539515559616565,0.05133489769562672,-0.08628005642015424,-0.0623338511531358,-0.06403231729077255,-0.03693427970316091,0.0034962769181855345,0.043083746623108585,-0.05359145925337802,0.02545965793642835
FGF16,,,,,,,,,,,,,,,,,,,,,,,,,0.03977188370479763,
CXCL1,,-0.1133306713073161,0.11560504741391271,-0.024353368233835482,-0.035424901259727345,-0.10874876586404077,-0.029223837179767353,,0.06698214457929015,0.033234696016495285,-0.036586186383001124,-0.058717416290354235,0.1786639993709583,0.03944738665802368,0.05186712058846405,-0.11578036052514418,0.040977925861563146,,-0.02998185236179314,-0.0812782004916637,0.05434111306175949,-0.04920511650766059,-0.00813258741837504,0.04629920726633377,0.0014198947643113931,0.1288218115098828
VCAN,0.0818540348718913,0.054953220746339806,0.015051649152661885,0.004767727546041845,0.08208798268273428,0.13270938742500782,0.04283351820118222,0.046369730886780106,0.3431101974190514,0.02892405578784231,-0.0046881861700324495,-0.06312536625936586,0.15311584999831407,0.19796289898830996,0.007139975397737167,0.005292665709524871,-0.010261600470651866,-0.023839649863811707,0.13716805525254164,0.19057689933812338,-0.019598355552703204,-0.06086299695063557,0.042158195473874324,-0.30284148578951475,-0.005227628026437971,-0.08260525791353066
MMP7,,-0.019661699641050218,-0.03759455897920762,,,-0.05526530470283959,,-0.019641196451468942,0.04216592528221024,-0.0008632202113847307,-0.0449368175132159,0.002368335161591838,0.01796782005245489,-0.006519270588600424,0.009141863510507846,0.012212130988064855,,,-0.01265744332000313,-0.055994968132313735,,-0.1020586957431069,,-0.21753183504742826,-0.06698895142314486,
PTPN6,0.01895993330890643,-0.02976614950501827,0.010401425716296242,0.010969857892431177,0.07546523444953185,0.0297621903229412,0.03540848372339924,0.03674557634649853,0.31221494535803873,0.020044950698379558,0.0512713735766583,-0.058038062163422166,0.13473651225668642,0.08024163572389163,0.03135106540700838,-0.001921678716066294,0.012273757762940643,0.056778254899517405,0.03395227010273571,0.03702784214417818,0.05702890105395516,0.008841619972613075,0.11789976793852401,0.09861774991779795,0.04340490205710004,0.06138398823020241
PTGS2,-0.03517366851762997,-0.027354680299514416,-0.036270836754220576,-0.03832628642251077,-0.13784830264577963,-0.09529388228771173,-0.06452258104563549,0.0972483095964843,-0.3194681665929635,-0.004470589127874288,0.04279507454253404,0.05345336436510955,0.04831692097373756,-0.0004781935248209992,0.09986874090239713,-0.004689062141624812,0.07750194540742317,-0.008878129288110463,-0.0665400843319009,-0.1216252330945081,0.043457760362613326,-0.059509223922540204,-0.12892054929997024,-0.02189235959500581,0.001091867703836307,0.047163486426549016
XCL1,-0.0279596529812514,,0.014202816343993353,,,-0.003067205422010217,0.022526887472614096,,,-0.002536919924265482,,0.009977795168094808,-0.016347235326558286,,,,,,,,,,,,-0.04598251562630304,
CD58,0.019161011087542805,0.0058200410511558935,0.09650419641213141,-0.0062187995996908765,0.02281268615429343,0.02538256532318805,0.018786810943547817,0.052086992629886135,0.38030011407078707,-0.0033795263059058327,0.004780819790493093,-0.01798718878103917,0.1512954249439559,0.10940813945257677,0.05868286633008305,0.034508087142563475,0.05894468720746564,0.04589314891634845,0.03874787401013383,0.11049629646637821,0.04530618753898436,-0.030693673535004243,-0.03769394438838804,0.10681483214504854,0.10229863360230435,0.017584041047298687
TNFSF14,-0.025540949429019844,0.042155843780006905,-0.004455521772299232,0.015102891430990991,0.044451287552909634,-0.019063281456767778,-0.08804296779803748,,0.08675301042449043,-0.05016450187883953,0.015431951712526197,-0.08772165670988953,,,-0.0645222527519946,-0.00791570924869594,,-0.02097429579121809,-0.05162814218039994,-0.0231575686883862,0.057712000383474016,0.03382470081160255,-0.011632887058540691,0.04852411811144234,0.0784274905500531,-0.02331188656461546
CNTN4,,-0.03253930442645977,0.02423819747462535,-0.022875406120051706,0.048577834669734955,0.019679768840694906,0.12297982731324585,0.010199571797408963,-0.23044824163566394,0.02683036828398511,0.06283162543485477,0.21810073003832892,,-0.07143389249861623,-0.03934080319640567,,,-0.0048415503280572975,0.02663028420484348,0.06538397043792897,-0.008174287821725908,0.03711225607836461,-0.07683546310781923,0.020419720473249078,-0.05872330583910853,-0.0340003540172
NTF4,,,,,,0.013541305216196375,,,,,,,,,,,,,,,,,,,,
INSL3,,,0.019995094253198207,,,-0.03484836712771843,,,,-0.018566346428501978,,,,,,,,,0.0243245107753023,0.020440086382655393,,0.007546114962042245,,0.005017847554707611,,
BTLA,,,,,,0.027164152818493815,0.026147462425669517,,,,-0.030911452766452057,,,,,,,0.018350439269302826,,,,,,0.017461495648989796,,
MFNG,0.021760023084298,-0.028297842042173196,0.0694988705345626,0.024046632224458218,0.040078316624339604,0.06632818590104128,0.021847174903362618,0.08860680358217168,0.25893150034680573,0.03152734669938324,0.02148739562042487,-0.016407946632689015,0.10781705984384976,0.015814236665296313,0.044253075035120486,-0.004879467258977487,0.05964944811301802,0.11775270342098516,0.06544427183868064,0.11412770255665675,0.0828937713310375,0.006205751876765827,0.11919823436407201,0.16733340778759204,0.023141697996699538,0.08531981981083926
ICAM1,-0.027416655694050163,0.021503239321945904,-0.09126249612982998,0.02241097115181151,-0.03538136082735637,-0.1252306883106868,-0.08277476184820659,0.06809901171688498,0.319039547320995,0.03759053320386418,0.06185715616631489,0.0026785401772833235,0.05504470815478729,0.009461512362640263,0.10390982089267965,-0.02976026460970346,0.09508629863303569,0.010197750166300827,0.02820636515436707,-0.10322343918677943,0.028694494876436476,-0.06789006664383936,-0.08018733270322627,0.16387789244983833,-0.019379905372140762,-0.022777474092002446
PROS1,-0.05223930264598022,0.15277871943083227,-0.013030168778699206,0.03356956963461132,0.02916683726615952,-0.01866477344103852,-0.10442947912417434,0.05625570956298772,0.38204739254718884,-0.028807979534978965,-0.0036230550916729353,-0.05294682151002489,0.12813608975589802,-0.0032847636824923305,0.04614627146374386,-0.0914053214068589,0.007248579743771163,-0.011852151229346138,0.0034673541344752775,-0.07831226874424385,0.1853389755982628,-0.13860731775169727,0.088060614759592,0.04271848077912488,-0.0018505175076456914,-0.08631766831139406
CLCF1,0.009296180819754732,-0.03119870373573606,-0.035375367465620706,-0.005893016616368522,0.0007821986566561157,-0.04841797607865598,-0.09574138895543174,0.05880781470265672,0.04848044442422228,-0.028934510889591907,-0.0018134173078918508,-0.05484719258244959,0.12544894691641748,0.011525813058961899,-0.025846253268315036,-0.12224932336126065,0.05365881132095715,-0.04533859660440054,0.010819790397533623,-0.011923245999806667,0.03424387210996514,-0.0035022232538671812,-0.02941589388655225,-0.059544855982600106,0.04234699236451993,
PSAP,-0.08016843413701637,-0.043805210894799065,-0.03228123928511308,-0.001985759317920371,0.086312967759806,-0.12738027946493505,-0.008341472325009003,-0.0707188584874478,-0.213372744719955,0.15818190862466452,-0.023453991895589957,-0.09220808593662681,-0.123933663180344,-0.08918747962743379,-0.06570585202068797,-0.02146949309432294,0.08061798979164397,0.0667763630706951,-0.026762532949225367,-0.15946001272576993,0.07426895604799325,-0.13170225585546258,-0.00808369720453028,-0.05647272828814921,-0.21166314440252543,-0.041293428374434525
EFEMP1,-0.057593493429851594,0.14275313986926988,-0.09058866769326719,-0.02843441768848376,0.12645845502969436,0.06754395346025291,-0.06500134397461904,0.03922282826405255,0.352224736955029,0.12393579625301701,0.00345946847856586,-0.12781465123660327,0.026560883503152662,0.014303329661754342,-0.06931653698760083,-0.1443932413455761,-0.022979118043234954,-0.01443188137437199,-0.04781822991597233,0.03834907654181351,0.133793762051757,-0.1088747541672478,0.059531487197740485,-0.29539870613123864,-0.03140325110417156,-0.06299637804689204
C1QTNF1,0.07110860895396118,0.09377141492951731,-0.11327332886297838,0.05726232009768878,-0.05328549079941626,0.01505100076044604,0.0240502915012358,0.02146491942856766,0.2979042164891127,0.00965728561690722,0.07833144726365174,0.0882684950255677,0.027534059648266943,-0.016484808157589532,-0.0034758049722425923,-0.14891862907868075,0.022280674608764792,-0.013521549967971237,-0.050101524263351335,-0.17260098067159216,0.19382902118003267,-0.121611093228555,0.040435165790589485,0.042996914325794486,-0.029072278654607958,-0.04866633836259948
ALB,0.014167753611695649,0.08339371479438815,0.042400569339969565,0.0023143167428516737,,-0.028758341154221368,-0.038315317769767626,0.03390260370654528,-0.0428736475626199,0.005210701560337971,0.02431679054125179,-0.02892194963312194,-0.013851913058986347,0.023388368259865306,-0.050910738353992416,-0.062056353304807514,-0.06163340084713599,0.066748401012545,0.05361360004908617,-0.00876087952586226,0.0029342501557671225,0.010539498557530119,0.03617272418311519,0.10272615911461341,0.07356888735591806,0.19699681404187205
CCL13,,,,,,,,,,,,,0.08582609336648288,,,,,,-0.022022985063170804,,,-0.032290416512135996,,,,
EFNA3,0.046579686102283184,0.006521761734020492,-0.002559391013379132,-0.010940868862112981,-0.04569359342554423,-0.0741698305005681,-0.0443845048054193,-0.01615915084375083,-0.3204869154819294,-0.028095587377933905,-0.036475490367208444,0.10738296864427127,-0.031487064391775794,0.05470785468323934,0.008580882444819237,0.0631783787510176,0.07172227666137189,-0.03391793988826345,0.08381032919667585,0.051317291717623954,0.021732237895948237,0.061982465719712276,0.06959010084344049,0.26887575517643736,0.052215373642847826,-0.04106600772574447
DRAXIN,0.03428468700161449,-0.011259982011977481,-0.017572717811335358,-0.025811522767752802,-0.052087599053584045,0.02493163658286882,-0.02556683854979174,0.10696514296141282,0.2880858725126358,-0.10139178221315255,-0.03430379647146858,0.06360822584704988,0.13727166363585852,0.019273595175112564,-0.03969985214418766,-0.015334767366383213,0.11788082352398743,0.02577110097377741,-0.042091203715911796,-0.11002748611117202,0.04526572148094844,-0.059768358557672784,0.07060437166634087,0.11455863444516297,0.000705937347552532,-0.0035503288423085976
RAET1L,,,-0.02865593089849011,,,,,,,,-0.0020110084572990744,,,,,,,,,0.07120168524487715,,0.026392737353645605,,,,
NPTX2,0.10903645168990027,-0.0238260751812784,0.12361412326689789,-0.027062742580904034,0.10252633584800593,0.025091473686590378,0.07021491158330609,-0.05351760625426605,-0.40285108227035105,0.10661642914473454,-0.02772585099273344,-0.02224265358746422,0.1152216620195603,-0.019423785658504954,0.08018958126923602,-0.04606546499639603,,0.0363028092918575,-0.013932873335860466,0.021818930971488036,0.08447121169584623,-0.07360987055504425,0.03704511568589762,0.0003688811737656856,-0.06131633550711093,-0.005131950207617353
FGF11,0.002009176967904911,0.16376013462641673,-0.05815014215196904,-0.018826895575342676,-0.08411940215323781,-0.08644941554911832,0.025273729655481365,0.09477356816783035,0.3502354999368788,-0.014287064013871127,0.004993282331884142,-0.04896492407357787,-0.005719142032759028,0.043606920821161986,0.011821626190484213,0.0018171867423207417,0.059495031090336596,0.08518804150465621,-0.011231898063787027,-0.00926070832486142,0.07969800644995717,-0.07009619992276399,0.06368653240415599,0.20354057016763744,0.04876455211887531,0.03098382072119756
CD59,0.0036374258393797386,0.08137797024876475,0.08505181145661499,0.0026967032112891537,0.16933066431569874,0.07298620128687519,-0.009129320369608002,-0.04988089507785642,-0.23568572006498445,0.07002832428344645,-0.023173632090778384,0.011206779772370633,0.1186037285294508,-0.03576122966802866,-0.06721341602748031,0.16111262979887242,-0.03663620619827013,0.05742467803831063,-0.027755837067613347,-0.0584791815775168,0.05765404321007839,-0.1031329848223948,0.06958676276373765,-0.12816271193934475,-0.11170126274305459,-0.05519544754156646
COL9A2,0.044402695340601026,0.14733882057709038,0.19156538902590706,0.04360011044247316,0.1382470037369136,0.08238373980810103,0.08683589224788991,0.012324936010425197,0.17177586081962837,0.06369256359498669,0.016599859306170167,-0.001451587214162059,0.02657916023921322,0.06126958716503651,-0.006610187139214758,0.17235167453939962,0.05292797880336674,0.05049733148991871,0.10728125413499857,0.21444103185832464,0.10997259872630245,0.15424130259164284,0.0593987473235282,0.3690738412376736,0.1448262103653515,-0.13745875685351286
DLL3,-0.041111974268910945,-0.027928533904121845,0.22216729413360709,-0.017323188889214167,0.03408291404011552,0.1614629127308889,0.0408084066336063,0.027053517084171065,0.18761365228174684,0.07434707295130995,-0.011343769145917367,0.07183298576248681,0.10559347987743735,0.10176715181124531,0.006276648478589215,0.11632412721308093,-0.040481957172073146,0.011525911023409913,0.17858957499302563,0.3178598081214674,0.005779835677675185,0.1159658526687214,0.05404226411363485,0.39328699731146854,-0.08900824840620351,0.019647545495223847
FGF5,,,,,,,,,-0.042266456589954184,,,0.03576423132797375,0.03121644203409545,,,,,,,,,,,-0.06901844093722764,0.000457027272899909,
LIN7C,0.02737390483354391,0.020789564128184758,-0.053936542492219346,-0.04153945771448898,0.017620154249937143,0.0037283490221801945,0.02350446203794618,0.07474982166498041,0.135380576148623,0.03354347955102796,0.026969329078955565,0.020785488595891518,0.04911400939398753,-0.01752294408776818,0.013971897919704311,-0.05401726793805814,0.09667328745297214,-0.041684251051134914,0.03823961715478184,0.058140684815792196,0.04384755714602046,-0.014385111935137283,0.071764879087907,0.12068742541821563,0.06038122746104142,0.040667036971771514
GDF7,0.14306274068089986,-0.021273573374238113,-0.024140059905766585,0.04058289202973547,,-0.03038340928669995,,0.0026856986809247817,0.11769062192072875,0.025534360867674685,-0.012880726737252792,0.04566646049167338,,,,,,0.14970123681069927,,0.026624128052098427,0.013375682472587557,-0.005692645369897665,,0.06371353790926336,0.05388296411021505,
PSPN,0.024610238802284176,0.017323084963457355,0.04678478861807525,0.017893492766401748,0.10082007152007169,-0.033599321968740686,0.0007370946947744968,0.06977844088312264,0.0786858531833873,0.02338207152558035,0.03552396495950948,-0.04768639853813495,0.04881433915038239,-0.00025540794459861024,0.09008861850335957,0.045409417803672025,-0.023502462585718305,0.027320468972701593,0.0864015217399673,0.027724076432238516,0.027498573755467333,-0.005818135268565251,0.09361360459418795,0.2580286577375345,0.055260457406273986,0.05801996612230627
ANGPT1,-0.0026624224638421307,0.06536942407722984,0.02664887879101241,0.0023808980733148887,0.045692329725385256,0.018666137129552045,0.09398271769017032,-0.011121477797116388,0.2684822882990512,0.11178413410573859,0.02799326322865035,-0.004329703788374562,0.05745670205245738,-0.034214039263510465,0.05711071742907678,0.02226181595280681,-0.05093624771684223,0.039946411780003625,-0.006592663155046661,0.08239015418505266,0.024779001199322352,-0.01896618829367793,-0.052106509818347045,0.14004961398291926,0.18581390351744026,-0.08165387883635598
PNOC,0.03097449808233623,0.010363264555694127,0.0620654312152688,0.03568086610603238,0.0493232524137066,0.06174313572292594,0.04137870840056883,0.05879989894410527,-0.313163951460606,0.11930069359695597,-0.042971478993347044,0.16384339917058763,-0.03745572054676275,-0.05334012804900722,,,,,,-0.028015165734504986,,0.01281651679134116,0.18667387414332237,0.03843555557363911,-0.08834512785692376,0.07178098761839521
L1CAM,-0.016091959509213546,-0.061361659874208,0.08196506818044356,-0.03337609954835167,-0.0437562227073893,0.001135302878844042,0.03249552524931164,0.060577482427771424,-0.24967075374718078,0.04142407290613657,-0.01270789823402866,0.10119185263797408,0.04877880996721409,-0.12138835624272426,-0.061092131861235556,-0.004097842245609975,0.04048764915592933,0.04201745943934679,-0.05676589085068907,-0.15731667061767132,0.004776769416567974,-0.09321171537620124,0.00012805930880338328,0.11321822945074796,-0.07087881020977294,-0.006683734486733173
APOA1,0.09545076990889026,0.0733264947192991,0.033253952297421244,-0.042992707152901176,0.006739636497319686,-0.01729279527481426,-0.028011916144797887,0.04053759988833151,0.08369914744030844,0.0014665225499872676,-0.06201872234532645,0.01510098049819936,0.00785799065419191,0.016460306947591614,0.12927633877174077,-0.05032043703533144,-0.06997421813172414,-0.016223003702541674,0.008986536384092638,0.10808670366629262,0.09926460282803282,0.08620734288154946,,0.16669471593528995,0.08566867351726978,-0.040584877602585896
PSEN1,0.04099429515345882,0.038912499526568674,0.057638114067109274,-0.01708381827845495,0.0584790218874154,0.016353566436795676,0.02220343557849151,0.010120430209670796,0.08433871272540859,0.00635302282868389,0.010956676848083742,-0.03344110219045972,0.006737304466469629,0.05241006385841378,-0.04884963885379372,0.032526619243841724,-0.08426217241083034,-0.017948308580879913,0.04151104157939569,0.02810040020595133,-0.08753013816719207,0.03842475394774637,0.05002045335509644,0.01345284277007333,0.03890695345544505,0.042122283132398776
CALM2,-0.03306897448553755,0.046702414312277944,0.14291261438908828,0.036777402476029564,0.10681216201088181,0.1846452909125108,0.1341083567804552,-0.017867196156726828,-0.4900097926041733,0.0926493335637215,-0.026098636008164634,0.1613795649104594,0.1591991065587546,-0.03512760434773612,-0.08570502774162998,0.04852192259149157,-0.0378422178012711,-0.008987146133108411,0.07266013359759171,0.16339564187789826,-0.05923700641002214,-0.0009330325156676651,-0.024224188737027353,0.2933306407532588,0.037668533053018954,-0.05178205378153667
CLEC2B,0.03728582402301782,-0.16616778723552333,-0.07759472690752385,0.025388030229156238,-0.056336084150880025,-0.04047532451993916,0.013474655292011178,0.06932412077347908,0.357081940295144,-0.01502074910027906,0.01557227407426909,-0.03357675778461426,-0.007678999389618949,0.012807623512256804,0.03037036698644026,-0.04855587250758586,0.07555727565171483,0.004563319314334722,0.016774159211585996,-0.0645830920415092,0.10455799912452181,-0.01584604863503549,-0.017384830892529915,0.09141335596686284,-0.10260440002566391,0.06246774957692286
NTNG1,-0.02161119533542763,-0.006128974042718414,0.1282442629214659,0.005559956357981379,,0.046050687255171904,-0.038347592608393044,0.04800090441200969,0.08398807576932787,-0.01677424961478894,-0.020873181000039903,0.02459228032809313,0.06851951449882662,-0.007688208949692595,-0.05909170213301127,-0.01535890076646283,0.03958528133081656,-0.03275412512071605,0.0052546825370273316,0.1285533497777654,0.10068250367201859,-0.05634382456819675,0.05020501323378934,0.24821977743801663,0.00981131295326326,-0.07495769242110256
LRIG1,0.050160193143434374,0.22168688448276908,0.10949446270894289,0.03331708393085786,0.10513192535846137,0.15865360424855612,0.0318569378936942,0.0005512624347492035,0.27705983474465246,-0.012877518498479923,-0.013706893254931315,-0.07713505284950595,-0.09443415225734571,0.10246506860194789,-0.048915443815354884,0.11813636147809073,0.006592587378722224,0.05051632312807578,0.12212415523133018,0.19753014850374437,0.1373111760597608,0.19263457876508797,0.05515063096522351,0.22817187902451946,0.24489721389349858,0.12746074585769143
CPAMD8,-0.04302370811659074,,0.007016215803448076,,,-0.019671072589124955,0.03310678265644269,-0.06952644936612523,0.02307710390685367,-0.027968655454433167,0.010550583746344237,-0.03555381441425983,,0.004126874815032457,-0.0448788069485571,,-0.06461348819198565,0.020222487424920454,,0.022048358666018487,-0.008696091639027709,,-0.034937590854804794,0.013459973003473106,-0.044657550678829074,-0.03726024181360638
GHRL,-0.03881001546003707,,0.039470472161549766,-0.012556513223698733,,0.004349195921810982,-0.010781231708840473,0.05282878555421558,0.027709521533009384,0.04780062453055408,-0.006714288644521402,-0.04924183182416588,,0.060598698849321314,-0.092003518673133,0.10277700159503643,0.06822115556072482,0.017557157198064013,,,0.04355843352665943,0.047512238732580814,,0.03665481268797999,-0.053280832182349115,
NPY,0.024810592068385828,-0.14698011358361684,0.058180281815824214,-0.014237640210675676,-0.03324238392847481,0.06109123557270493,0.10046523668906263,-0.00984826485113427,-0.2893106852771432,0.05143752995335416,0.0029572555331034756,0.027661563668422123,,-0.017443344415392553,0.006406085336522137,-0.055660412686067924,,0.00630875114528925,-0.016296680003128217,-0.07987165422089652,0.0388190980009471,0.017123452516803882,-0.08649917169701696,-0.0120751769454751,-0.03229524986288045,-0.03583861389145395
MMP2,0.008381778518499354,0.01736630573801785,0.18547916791385682,-0.02469942189227619,0.06374119167320899,0.03606816310027036,0.0059601637423396725,0.09940746987562721,0.4111905719263037,0.024974184740090454,0.0030328407065730086,-0.05243536408672326,-0.20899874211149333,0.17761452305931957,0.035650355662059235,0.20173260874888,-0.02368196653849461,-0.0050177806689618385,0.04123111800234622,0.11079130511646419,0.15413074119096487,0.018983956808674065,0.06587563785939585,0.05422869509465572,-0.05985658720589395,0.05566605169562017
LHB,,,,,,0.002669368687107459,,,,,,,,,,,,,,,,,,,,
PPY,,,0.001959564116003237,,,-0.008462465903791613,,,,-0.06735015217306224,,,0.017038225753943356,,,,,,0.032379527021579486,-0.042490192515199955,,0.034260211172030756,,0.027479394433962686,0.002307716198083306,
ALKAL2,0.09506974162866912,-0.015833446089277566,0.02295675506356328,0.003534767820157009,,-0.05558797096403738,,0.0376040388586901,0.0012705233178581608,-0.032628619748397605,0.026531603438655973,-0.004402605211535899,-0.07401957135474742,0.0564268205160258,0.031096377668730368,0.0466235783497795,,0.030351915228287292,-0.015444337859334358,0.06514163626739039,-0.031472369776871956,0.03664058256318216,,0.010048813614643734,0.034836179194474674,-0.036018611082338434
CSF1,0.014963667371265187,0.05562754860703767,0.04717187775410411,-0.06274756394469994,0.11200287442857335,0.011703138426370822,-0.08049906440554039,0.0543608695523131,0.2028989588405113,0.019670139751637134,0.05822161344489134,-0.051998036325679564,0.0802223541162423,0.029491372688718053,0.014198501676734187,-0.11941171085860208,0.026804840552815963,0.04780416831733925,0.07911478616030507,-0.04886642675100496,0.09131958279441726,-0.07266942472119887,0.02136541429974274,0.16149584450657414,0.12051973590324692,0.00880130876579952
SEMA4C,0.020874240636306822,0.004659448337167342,0.06798794901224224,-0.02632332198939967,0.13258552055988237,0.07594311000748712,-0.004351516992430118,0.07853600655248909,0.103158932433004,0.04182481472720579,0.028274829661344425,0.041095753188856984,0.03592972907855649,0.064398072730579,-0.005924429396979736,0.039617080346443845,-0.035760078838366446,0.09911247697398277,0.021966148933910808,0.06161934488866212,0.03404860159077858,-0.05420987346696669,-0.006546288031446894,0.09551259860163117,0.001968978565968655,0.04391255962365097
BMP8A,,,,,,,,,,,,,,,,,,,,,,,,-0.012363407105358428,,
ICAM2,0.014119596895352278,0.025176456663429027,0.14112105411769615,0.007279300435551298,0.11524098475819608,-0.006856628854469318,0.032034631919337385,0.026833705591570615,0.2246340059913254,0.004044732385975879,0.048527991223288484,0.05438825988573722,0.11625773488906689,0.0022913118860110257,0.002975116877482429,0.06354878517953959,0.0417375278162566,0.09354750627288211,0.14382131172367366,0.09156781384649725,0.1525110239399321,0.029122070996966273,0.09091283246101303,0.08682223972794721,-0.025466507703161674,0.05050923709916256
SYTL3,0.05111222217910037,-0.004891799299759519,-0.03431751605002322,-0.010304859693739022,-0.02978102715865299,-0.07094086756795424,0.023167422194549314,0.061894896803784356,0.23073156223567187,-5.880435540309986e-05,-0.0044440925121383805,-0.02570262349882683,-0.022856984414911186,0.06747271944189778,0.030048635745003695,-0.09131531192599952,0.0014114781940359757,0.05575927809583954,0.0060497063570826405,-0.006698055023675047,0.07937836658198263,0.016944840263461255,-0.005513818162376366,0.0545076093347283,-0.04181984422038154,
IL1A,0.011627075057399265,-0.014997535138986108,-0.023940994938936748,-0.015243641804971777,-0.021458411895174452,-0.07956735631572044,-0.028508299115298886,-0.014115079334226807,0.12120379081152106,-0.009593864131957895,0.03588949928253929,-0.029922982556301856,,0.10761239399196258,-0.003592432117216724,-0.06638563795151074,-0.025475718107677903,-0.01722470739270781,0.07243613511472806,-0.028289605081766502,-0.0974134636576889,-0.016681364362985236,0.04258500851386917,0.12103045110333524,0.1012426036359709,0.1650385855691204
HLA-G,,-0.00621922256508574,-0.011600299481135789,,,-0.076630952471235,,-0.026646451162381894,,,,,,,,-0.05519473008326033,-0.04399311731004385,,0.02990464734245137,0.023188288269215766,,-0.00919428547001087,,,,
PGF,0.04959083733004956,0.018734221979351113,0.1042297407812939,0.04835282900630138,-0.028228938223685978,-0.01888841043739365,0.02226415528133578,0.06270288521774459,0.3075574049452876,0.05374897164315863,0.0226565097802408,-0.037482155868484135,0.14108427328886078,-0.021270417234939075,-0.018511857913831826,0.05298863373180258,0.01529375452763827,0.07955877259710818,0.09294490335847934,0.1264246777797481,0.15718970688783224,-0.03522438677877413,-0.08192031809654518,0.07382704526758586,-0.01980141800517451,0.16535650953713296
LGALS8,0.06678090903373586,0.03330530083447847,0.04893262459040527,0.07300985230927422,-0.01515115244910413,0.044632959974206646,-0.01676669263090101,0.0273097887708892,0.12282293925920461,-0.026636699854001303,0.03569253349004284,0.04760840700875626,0.05486176875789787,0.056212707162670426,0.0319332565088127,-0.027978335264571056,0.04780976030315307,0.0652343690804109,-0.042235473352394325,0.011488096924978323,0.07536213268144691,0.05898406317675546,0.07703920100585798,0.08778859806027027,-0.04266593623787145,-0.06037503484303393
DKK3,-0.006781283172274078,0.04851038823595769,0.15172672079675004,0.009952204897487394,0.09701715336641557,0.08397069403499952,0.06236876051694488,-0.06935149397473542,-0.44288954960554716,0.045677626375391724,-0.0995194881556687,0.17866683256198182,0.1206518679421553,-0.11436631470096413,-0.009807405030921413,0.09068206936573209,0.029695486085730784,0.08836568687301592,0.09321520147609501,0.1047211257899157,0.15455048262045953,0.04084021907948101,-0.04702906236898739,0.12441779609521404,-0.08235688041450022,-0.06715865951105689
COL16A1,-0.0011862362531147367,0.21672075106065614,0.1959882651109347,-0.0027535950285170526,0.1192760154438416,0.10000969800397357,0.04221393659861912,0.06853008810866157,0.12880518609290564,0.027685988718406232,-0.00017119967962567396,0.043960382905626906,0.15070936279502814,0.17252911400095355,-0.045849311520465834,0.12102787282103658,-0.0177868955891512,-0.030664415306049006,0.08983946401213146,0.11178527342458673,0.1214994431182718,-0.020675718432537904,0.021320147995083732,0.2678517524805693,0.16703666486247054,0.060295582979084175
TPH1,-0.024222305908264765,-0.005387334839160013,-0.022626153444932864,,0.04576986084764125,0.02501378677836984,0.028072411711210978,-0.008659172740422756,0.09749358871361682,0.004898433023213873,,,,0.013108402746000955,,0.004435506160572291,0.03514896919508623,,-0.03347278369370286,0.0699893848996673,0.013607435134400167,-0.06527230198365785,,0.014280808830772953,0.0607655116056989,0.025598396240802776
TNC,0.10527204907134267,0.14573239529721105,-0.0750203143020557,-0.007493658969536141,0.005744997584345206,-0.06585335100122429,-0.12862901598796478,0.023676126608724035,0.4641089300277594,-0.1268037875398855,-0.02141563015369636,-0.17603000974888908,-0.21514035249749972,0.06009188745610253,-0.12033252497802976,-0.11351526795708682,0.03875192501309059,0.08787346913322519,-0.12935257532824004,-0.21877309263669867,0.2014821321381937,-0.18053191607475386,0.031265862489400574,-0.19883552415126757,0.07018062689542517,0.037350519650862814
TNFSF9,0.058421639193696785,-0.051624695034760186,0.10548789895110663,-0.021954612892515445,0.08527579228165946,-0.09096238629582623,0.05508574811654499,0.04951290940959979,-0.16689412830476788,-0.03505177545912348,-0.02966101388231282,0.03492616623566493,0.015740179965660028,-0.05740640884121082,,,-0.03559412577174724,-0.024558943763904367,0.0028987408742721754,0.0036029413035586085,0.013586920313783628,0.002376791283689076,0.08611936359039751,0.04521538738091968,-0.03158681075761105,-0.017124005102370717
C4A,,,,0.0014924028221383443,,0.05634560820551415,,,,0.005530245506706812,,0.05330927634454056,0.1095960790751884,0.06284316381332304,,0.03556657331263993,,,0.09816068452933392,,0.07299750860439828,-0.016932847936817107,0.052250140021181134,0.0057517013925951505,,
CNTN2,-0.03699855512149534,0.014982994246122872,0.10193180464581651,0.023511564996150404,0.07790955290384523,-0.01815131026543033,0.052015698047668854,0.06179849954675036,-0.01696287840968429,0.042414011676344975,0.023671994136735763,-0.19560508290993145,0.011064491280743795,0.080811847873432,-0.08325248193412238,0.058692951773314024,0.024302781031765162,-0.09369118813400668,0.13012258677230568,0.20299664532653922,-0.27670323520069867,0.10008638262079078,0.0032420128798828305,0.08749617710812067,0.023524077735995772,-0.06210492066882806
F7,,,0.03879979817957663,,,,,0.04669936375700287,-0.01823238313951494,,,,0.09269862933888386,,,,,,-0.037608728701147204,,,-0.014245377829522564,,,0.045771885768285316,
LUM,0.04347622775188017,-0.0614905302879727,0.11956185764112774,0.018755681542244367,0.08211760560480791,-0.036246076116030174,0.10665913066445014,-0.01197778588646239,0.3499544370840642,0.014730628665591182,0.03445755007217446,0.0047402761104493995,-0.04814645407236963,-0.004434035912861596,-0.03496645290391061,0.008125996995101333,-0.007420324685210905,0.10376891677919028,0.06990840038124706,0.08993329297312301,0.231083534748087,-0.0709089748954593,0.11579466666068056,-0.11702375647784356,-0.12915731387416726,
IZUMO1,-0.008871103479923018,,,,,,,,,,,,,,,,,,,,,,,,,
BTC,,,-0.005333699474735824,0.013091405563963984,,0.00495891556511204,0.011117257268685506,,,,0.03907490015068269,-0.019124463043700506,,,,,-8.313531801395089e-05,,0.0845619418976902,0.015450780460602906,-0.0035710559409249474,-0.023077834692540888,,0.11992694834487388,0.029399977476343094,
APOC1,-0.08729515772104601,-0.18514828439410735,0.10768850743003913,0.007395833047234504,0.0980694224661339,0.04176865530464816,0.11196348261230153,-0.013168794896979386,0.4840952987226308,-0.0397492310491176,0.05073533087305011,-0.17686311440261338,0.1608432131293542,-0.003020586010692888,0.015126556625222502,-0.13538518843165687,-0.12634844678005067,0.09789163079451488,0.04455381038306029,0.11148740612941754,0.026204182328284257,0.07798282096787865,0.14424752426343745,0.20388215172007698,-0.018589875963705642,-0.04298085904707316
PKM,0.01690501096267562,0.11361576596912427,-0.19729849653527165,0.005914057828009093,-0.06591496571746318,-0.07004698185320098,-0.10626524807224166,0.027393890057220895,0.1980282761802743,-0.10809416175033512,0.006657886749936366,0.1400568843936604,0.04662265999246583,0.05059718211005465,0.04774325176264263,-0.169962615645954,0.009174096642592566,-0.0034783324288465258,-0.13378712047037158,-0.21454190355671768,0.15830586716632944,-0.1111609080802463,0.029055549325904175,-0.1306808702884834,-0.04703569507010437,0.008200560052021397
TNF,,-0.04666136433597952,0.03268167148174558,0.05309697731551405,,-0.026009892565182588,0.006068070041452066,0.004413232914833964,0.085335303870378,-0.04839498281827115,0.007457079255626113,0.035731155653596205,0.16160441741915613,0.01678103132991096,0.11583497155317948,-0.11418544057501892,-0.10291907439764032,0.012501064381831429,-0.03291181331770213,-0.04069651432998003,,,,0.22036563501370904,0.08962895632704881,0.011165052436422818
GNAS,0.02585247931853353,-0.04286446010188691,-0.001879381193481661,0.02009400631412909,-0.09730171421252695,0.13657646362006218,0.13382620862307668,-0.015445535207554338,-0.3545832524606894,-0.019041125962705335,-0.04001167070666369,0.20442976687404263,-0.18102494473387734,0.06876894705749542,0.15162235871199237,-0.041893427126420045,0.01706296278163156,-0.03544664736375265,-0.07829630438200924,0.03206747157187112,0.19552527841899955,-0.010129849440945212,0.027630748190177985,0.12359099738546904,-0.048339018850373214,-0.04408271452447565
BMP8B,-0.008691284684030383,-0.01217985028170428,0.10498079388671,0.04832277509221031,-0.031972452921297766,-0.04482477859960172,0.03239141144434197,0.037290132539149146,0.04931854453923013,-0.016659011685806246,0.017480366181156594,-0.05027243845330633,0.009613609013584328,0.05148045246718722,-0.008219959090476056,0.05895059096595609,-0.010928429930313385,0.03512305584949417,0.09295473376190955,-0.015982806686877057,0.030556249762347526,-0.0710783433202627,0.07067489224322752,-0.0403815182476307,-0.058629570379932,0.03360833054215634
LIPH,,0.09466313648359549,0.006076974067141476,,0.055019977899082695,-0.033116215885716595,,,,0.015827830645080348,,,,,,0.00027764238973074636,,,0.03192241613125793,0.0374594023304304,,-0.020349572595542438,,0.18495871890861854,0.12135434272475218,
CCL28,,-0.06503851889776852,-0.014437098738519222,,,,,-0.054533242236319786,,0.04132944903257147,0.03266803616247918,0.0898007588663763,,0.035901634809301475,,0.06919325587829797,,,,,-0.08134531990158221,,,-0.018471680531357844,0.08601154268014292,
PTPN11,-0.021565006039072968,0.016069796359529025,0.028387764315054326,-0.014306219009576376,-0.027665902483150897,0.027487350976977486,0.044470035137052236,0.02226329193689472,0.08316938789571929,-0.0213727649935439,0.018303557734862065,-0.04364307549784865,0.09127971517907682,0.08535034947979682,0.08204663015156864,0.032811491902180134,0.0709981508169437,-0.05692560870243413,-0.008978187830531571,-0.034508172174865,-0.013048793939749703,0.015807399186487298,-0.06928704056217208,0.080334175085254,-0.06115204889595735,-0.08856353485209048
ADAM12,0.06046750203493928,0.033152752263541405,0.028019691217425702,0.05615873136622454,-0.0046360834508840125,-0.08372172017197858,0.07602376404514204,0.0384684744491493,0.2507722403615999,-0.06968673937866825,-0.0003413943591447957,0.060921590039723576,-0.0004706195780187917,0.07996199019035316,0.0390212507118333,0.10943008267050174,0.07987118420308412,0.10472890612377123,0.006857194816940702,-0.036891178482805057,0.23508083404305236,-0.04035698014574012,-0.028456821745876278,-0.130152198741773,0.06098069527733475,
EPO,,0.034644008543437556,0.008040861553809288,,,-0.03598664394237998,-0.03898826856208884,,,0.000357109667792571,,,-0.020685615090232656,0.044100084307154494,,,-0.004322929931471856,-0.023906521184372524,-0.029562851686969698,-0.013858869688236557,,-0.00636044091775749,,0.007516258870385077,,
EDN3,0.046589406757181206,0.03231058607248508,-0.03207750689973717,0.05611207814616119,-0.0162974264024315,0.011528408533549632,-0.003123373436656022,-0.00486678326611203,0.028654426066399098,0.0055683074778526504,0.0237604908779341,-0.0450116210361226,,-0.0017049055357746489,,,,0.010459722306099093,0.05584972998353737,0.021916481847910577,0.09779334471050946,0.06658228725226623,,0.09309569159382232,0.05238726987501549,0.00837525505276518
CCL22,,,,-0.008094262298811062,,,,,,-0.02673176528346505,,,,,,,,,-0.01847873574262627,-0.03561777324317733,-0.041972312823648245,0.04766213494581866,0.001344929534947377,0.012497911012363102,,
CCL2,0.030890043196231672,0.11133132574289097,0.002503521271125234,0.01806117823655171,0.05554735768292326,-0.01933515863611285,-0.09417165574500401,-0.006847923642892761,0.07752883115979906,0.029145919497223567,-0.026118861888507212,-0.11509466128310161,0.20264528235192394,0.004718581179363154,-0.08297835572045299,-0.10684811824072113,-0.07111065455732249,0.037073244653418345,-0.04474680480342326,-0.038694776883632785,0.0629418676562585,-0.04051407409924694,-0.13236897332528322,-0.1498574132374495,-0.0024695550965139383,-0.0047174322576213215
DSCAM,0.04654149864855254,0.01617756280129169,-0.0027212459492631943,0.002794938610861799,0.04450236574868313,0.05087823636631607,0.04067234142205847,0.09442457861644964,0.06274498036033742,-0.00016159628215143643,0.02670978188011921,0.02145630955453063,0.07100398673583767,0.08309322255376302,0.040130279194189274,0.06994500312249569,0.011578392761411786,0.027817384699762776,0.11556831051665707,0.19691392772474733,-0.08194497420512917,0.07083165724733116,0.035130825798653675,0.127461271757363,-0.024363604350873876,-0.009613515455572414
GPHA2,,,0.0467463559879067,,,,,,,,,,,,,,,,,,,,,,,
ANG,0.0024956128577989763,-0.03299219201826469,-0.07741351588727853,0.04505527930232506,-0.02456036685040069,-0.17466187626940188,-0.05626425700869543,0.10020300957161118,0.21000601989724663,-0.04433978634479256,0.04163432452042637,-0.018735301278952194,-0.013145370307952606,0.06766713765593683,0.009839794780709307,-0.07195672945195734,0.15061223728219622,0.16492656862613242,0.03682968139992324,0.00011725393853097018,0.03574172206643378,0.024837849280574437,-0.0006386031317269926,0.14112836977174356,0.014022405909139928,
FBLN2,0.042544953916525664,-0.06424766832890112,-0.0025988664070453814,0.05334125814200692,-0.04857576718709909,-0.008902488894952487,0.08433824109124527,0.05786590451383165,0.04620601428647839,0.01777946360679926,0.056760183513313515,0.018191045173261266,0.08503994381793886,0.03197024525951604,0.01543190641620731,-0.06232678369549907,,-0.03773771446764793,0.06833988281945748,0.0034152488749736422,0.05843373412390096,-0.012860814943935699,0.029142413251218562,0.13514312068206022,-0.0354938470408602,-0.03970763379285076
VTN,,-0.011490194011577286,0.020577455864625824,,0.011540706300054875,0.04115931907151325,-0.01577349166688505,0.043814101599257346,0.03631818066888031,0.02118863841182248,0.06587066166603527,,,-0.033560405925029714,-0.02053144612151457,0.022040984447546205,-0.057855560591770154,,0.0014374096834189366,0.023927003634417326,,-0.05062134646929268,,0.06699739726387265,0.013926911041807885,
VEGFA,0.06138119736461692,0.1352317297391185,-0.2772898275672429,-0.043559435302333374,-0.1332600134681246,-0.13508716354509548,-0.12424625680036151,0.06810106693376365,0.20241050540576055,-0.12402180602326793,-0.0380904180427692,-0.011306919756025572,-0.14847747473379802,0.09221024472349271,0.10204082840108651,-0.17291924220275345,0.04474304760134393,0.02002902237166457,-0.16325508432128574,-0.2418726558981464,0.06258231560263385,-0.12858389995086975,0.04562583807769817,-0.22355722555624355,0.015301494277516023,0.010174920689171946
F10,,,,-0.03669500335714202,,,-0.036177274964234424,0.05601500189411539,0.05540966752989923,0.02607662990862644,0.051014317529664545,0.04750529046607556,0.05314836736207637,,-0.07991496692069001,,0.010983629208922168,,,0.005359417880532585,-0.04309759098011373,-0.006802201201774824,-0.05843027116090546,0.1067153991559054,0.01133201863284671,
SERPINA1,0.020648191340414002,-0.06326952751005191,0.03840645791306029,-0.011307402186174662,0.06842790566740624,-0.03336208203177722,0.003920269352651083,-0.00029152374099396055,0.30350299076087667,0.0293490850224559,0.001105810522847853,-0.11980584541244474,0.1299169093642553,0.05469423681114377,-0.023064938579227333,-0.14323769690739585,-0.01996209164115075,-0.043178806060653774,-0.08209666034484746,-0.14237790255620233,0.05241302744091154,-0.14857989052955484,0.11067781042866161,-0.0632110964142943,-0.17886716615743703,0.02981052849315125
VWF,0.05569727216066058,0.08034286694679944,0.18555855350046657,0.020824539081775777,0.12836480091836397,-0.058326184767360664,0.091116094481178,0.06432892416469822,0.34925401383829213,-0.016826606903233392,0.03095291916890037,0.0404890244962051,0.08219970948117408,0.015757860507470255,-0.00877751833486441,-0.079508704116425,0.05580768543959083,0.07752691160945391,0.10411927081865638,0.04018224839768265,0.22066138440768304,0.0915502388837823,0.07370685761591819,-0.019064268493272158,-0.06102372408580968,0.10542160127741652
GDNF,,,0.0412022596235645,,0.04721977092613179,-0.05327432755538862,,0.06725701943708287,,,,,-0.04765161184050883,0.004278633981503882,,,0.019849083167445568,-0.036135455959825966,0.04037410376838136,-0.023108414386746667,,-0.032550608359101334,,,,0.07256969160579754
VASP,0.024062949362644904,-0.006427843946337889,0.07495248616740992,0.021486102001714205,-0.0583881568472469,-0.0024382765105729785,0.024763764841501685,0.06919848716589665,0.19235301559871668,0.07237075514480036,0.023681227337408236,0.006892088242142502,0.13040576391519162,-0.018197379182660924,0.0032992795537257207,0.030004969860860396,0.05284879343994309,0.10019335421278065,0.014902165167355529,0.040654398340154996,0.13841387057348783,-0.029282954392292712,0.04711543118161301,-0.03538732756752927,-0.03185560893342871,-0.02434883093897034
ADAM15,-0.03468438206541699,0.1134351012221693,0.10034323866729754,-0.019092940069337008,0.10070480968819079,0.046687492798159994,-0.05585048398601124,0.04602545855526535,0.17394986978706892,-0.00544666302894318,-0.0396167951893648,-0.06195204670090964,0.09154795266292688,0.027424947384504583,-0.10731554751139025,0.11201940428124717,0.07042116358034192,0.042780539843185694,-0.0076794176636573045,-0.07337983149093785,-0.008334911416057278,-0.004288315953246633,0.0890240271368789,0.11044090978912649,0.16045213728714572,-0.051435397166432244
WNT2,,-0.02548177261798997,-0.04585369144021742,,0.023922553639499043,,-0.015869382432753525,0.047211924294689046,-0.13919345579020767,,-0.02073709405848059,0.040248090166675556,,-0.011019739455364745,,-0.0064220628427403,,,-0.005908123596743947,0.00509774623262006,,0.05320242327669504,,0.038896575971814104,0.010267521468188425,
CALCB,,0.03630595151695025,,-0.022856792969155562,-0.018308043336461563,,-0.06323916257354605,0.03875674154605022,-0.06798657939832309,,,0.037459917639820615,,,,,,,-0.01551358367529651,-0.011525886508441345,,-0.06625462671769583,,,-0.022407857713356023,
OLFM2,0.0319509893839119,0.1655069770051393,0.07771983251844072,0.02677110763875233,0.10540279968776751,0.15880725395308837,0.0688377062844931,0.03108308464151391,-0.1671278192774325,0.07390182609080403,0.04724243607611748,0.012721032114068952,0.20036363847112082,-0.03500513579798631,0.0223971090903368,-0.022350521715967672,0.026360263862228093,0.07345649065979755,0.10981492113203617,0.1437143486303799,0.11592627898990922,0.04540694322062966,0.03991242631692672,0.3238801951419295,0.16134609004274655,-0.015376349866757864
MFAP2,0.08034137218156479,-0.014455776589606317,0.07232033774640084,-0.03698962921251736,,0.004848752605869252,0.015784996540372322,0.10917519225763045,0.27405870060513793,0.04532947285706074,0.023933380719949184,0.0013260561564365353,0.13563607913554634,0.017835326670068482,0.01953307893240133,0.08454502472796334,0.0035569906645209932,0.022725744168902648,0.08687825979846431,0.07146213778042347,0.1998194542157763,0.002363487239582051,,0.0487046615552705,-0.01386831483357736,
HLA-C,0.010633548962251582,0.09828126589944149,0.017117603277902394,0.040681850300519434,0.10528400029763425,-0.0742283562274438,-0.10345914497450476,0.02671806389575722,0.47013990314115905,0.0873455514592942,0.09845259605789629,-0.14543882711231623,0.19473106394691667,0.08374151921581215,0.01261950673014648,0.06941996131171449,0.03566306108795276,0.041434208671812196,-0.03658201906652604,-0.1594839826990303,0.21404986748232974,-0.11354388790914219,0.05084460815306741,0.1032666712527203,-0.20927864469414764,0.007719637648545357
THBS1,-0.03344112655016122,0.02222697349755351,-0.03991208996337738,0.11204548473440118,-0.01315831957017466,-0.06489201860354815,-0.082561030101898,-0.028243365133609002,0.13048384067327462,-0.05037795629941115,-0.010132137848736717,0.003945164366792467,0.09412143752872655,0.014949130926027968,-0.03739829163112393,-0.1077077757374769,-0.010619235495731466,0.09869716971975119,0.04095683858524031,-0.07006153582197017,0.08271374396695981,-0.1257876679657992,-0.0022503830123871194,-0.4128189230628567,-0.1817810577312532,0.003204018258776967
HSPA4,0.008231261583494704,0.03474377155959436,0.04190909864886783,0.007232133153812992,0.07990091585701327,-0.032336526052319056,0.0030644068243384994,0.02843635124929694,0.08396031987376865,0.015860561708020814,0.0037859441693996747,0.12445136221293826,0.08568659499986402,-0.005270221507060344,-0.04578673956755433,-0.07057551735346758,0.035746816022831605,0.081436994196344,-0.022120325055832467,-0.00668284762617915,0.00014128130311336323,0.06634431658154216,-0.06455245403232744,0.0015284567953853313,0.028595606797928,-0.03913500628234492
LMAN1,0.07925339462324285,-0.02999879969866092,-0.10815830367539586,0.017794142345227703,-0.12086477338554465,-0.07266396274638204,-0.12421717247784331,0.009053782133040606,0.36561859334411306,-0.014557539891918096,-0.011162583515267718,0.042045344702669595,-0.08926975636674658,0.0668099706187847,-0.025033922253305883,-0.00296744598008775,0.03088996395056316,0.02714798274361946,-0.11317452367511233,-0.11963626009095306,0.054901037306482686,-0.0190187207063661,0.007886354011140486,-0.11500594417681462,-0.14557913038534823,0.061978712707020725
LYPD3,,,0.010625627515446339,0.0038981276610848266,-0.014317537017667125,0.04043873957796507,-0.03605105766674041,0.006719166544183682,0.0907772964913749,0.04468607687108442,-0.025890383304520353,0.007044173098928025,0.13518851814975436,,0.10060244431523034,-0.005169503312676675,0.06418196123215578,-0.014221327765629505,0.016836981895508762,0.06406302867291225,,-0.019722660880727452,,-0.018444873958202865,-0.040071430063274384,
APOE,-0.028538622077292703,0.10388126297066198,0.02514860848186137,0.023676627481544237,0.08357643699274767,0.15045813160544375,0.01485427282257435,-0.05441955786983303,0.23693032198744046,0.11458860122539087,-0.03704658346339629,-0.152718254751827,0.09328391953827166,-0.06698242946899545,-0.0610191921417031,-0.08899864893650068,0.0693420995881254,0.06726307360988389,0.037901466667879524,0.04410065718898745,0.16742922230054594,0.11913378176626474,0.06893907545599108,0.12427350457380215,-0.12750976210836487,0.041506952367640425
SOSTDC1,0.003946872476475176,-0.01906149666370982,0.1354591433060904,,,,0.07200361772181134,0.09651316250257501,-0.011782525443800877,0.02728430875938259,-0.012522335900294846,0.04241330727464195,,-0.04989118264602499,,,,,0.09477816412284164,0.09051251132981361,,-0.009330709505880087,,0.1232524093646651,-0.02103458391810888,-0.041445408930258214
ANXA1,-0.002705798806727892,0.09085780371166496,-0.05590676586608435,0.010433028393656191,0.015202840110326707,0.02529447269817815,-0.0812771914868454,0.007782128728933686,0.4475451591542555,0.0529678054585729,0.06021379771219855,-0.15171422083174266,0.06329974844477987,0.01618197085736074,-0.013762820337807492,-0.05843434622928069,-0.02052616150237309,0.10472785007968874,-0.09221857312543216,-0.08048191439731038,0.05599674333820928,0.03349394614349529,0.015661125218679316,-0.19162128472308626,0.22004700973335786,-0.00830998160102165
WNT2B,0.04570685355885109,0.10902338512781595,0.027954285434670864,-0.0004779642432652013,0.052847407409505456,0.009187115764241168,0.061311791264441966,-0.017326426382435534,0.12268333033598958,-0.012135413129637713,-0.061465389749380483,0.0071036301068670114,0.021549091433490635,-0.008230319233234397,-0.026792033453816668,0.051756097672936936,0.016230114596280938,-0.02750942103385918,-0.008998035081379571,0.052903971600754524,0.046087119861402924,0.0015326297531434707,-0.04032068548642176,0.13932036849900403,0.004703671960605223,0.056463083485120705
AMH,,-0.002905507549693912,0.023560674798269933,-0.036968772824464216,-0.02311920606930214,-0.013606048580798568,0.010433102197174998,0.04893006384242071,-0.019809458630856702,-0.008816886425651347,0.013163451873383435,,-0.00012480495270872003,0.04808097253828628,,,-0.01927625862558864,0.0881869598366781,0.037761957390493754,0.023755721848994125,-0.027306880797324556,-0.01659446584201765,,0.1268815674733081,0.006143100948223925,
GDF10,,-0.035209335984284384,-0.029858180069230574,0.022128865810919312,,,0.028885418462028908,0.013571617124534197,-0.0676993460588286,0.06185736860749665,-0.013830986511714282,0.047108830517733125,,-0.0397605739117928,-0.023499539006232303,0.11936597929480411,-0.039552475065859946,,8.0255866533341e-05,0.0544325845175665,0.017965057019662046,-0.01494070147165138,-0.05329380372382456,-0.004627806298573965,0.012021039445361524,-0.06895374265775553
EFNB3,0.09291849459927194,0.015919227672079577,0.11244251425981994,0.009612762413739623,0.0006301140044209497,0.014543955844584244,0.051186057809110494,0.0019351108942766097,-0.12388855240355298,0.007257039756506546,-0.027781770749775767,0.19478292202509906,-0.09861787668064997,-0.03954416279224006,0.0347207501756047,0.06825242215034513,0.04391623101797906,-0.06583801050946556,0.022420115882339792,0.024203434060627214,0.1358800221635597,0.0025513349233977378,0.10714182213020192,0.2623442352132551,-0.02608001212198703,0.001210603130019967
LTB,0.03845112264228023,-0.08395056538736591,-0.013022602680390195,0.012355441961808778,,0.016999528165958625,0.042422864213428245,0.044222128228520716,-0.07135099567589238,0.052385005350005266,0.010008645393399034,-0.01686769573177026,0.11467524927225764,-0.03862979235643273,0.05080144561774144,-0.00758781313636245,-0.0034807896567434484,-0.017833834289665715,0.07051587418465842,0.07276821504676619,0.10581795338668112,0.09944587997615599,,0.15683507747764047,-0.012312032932907132,-0.04858342883475082
ANGPT2,0.061760446280327605,0.04836311187862335,0.16318413270101534,-0.004415664578965584,0.0948322845854899,-0.11345385951988456,0.008334813286819261,0.035605096187033745,0.39551804114047245,-0.0719318092943198,0.010228500812227911,-0.03472566091729113,0.11708197437508784,0.02582563419475456,0.008731727022464043,-0.013780544278229844,0.01805407125828713,0.13855848083924274,0.03365252953149261,0.06134309814271816,0.1694429012328761,0.013985858711024058,0.14200946722548632,-0.03562984566170201,-0.06982615229122852,-0.01359976072222049
NRTN,,,,,,,,,,,,,,,,,,0.007250956943458431,,,0.03989053842372118,0.022997488574591857,,,,0.034448447804733766
ADAM17,0.06236342070791318,0.15721145102724116,-0.028451874891599647,-0.04259998624076133,-0.01140669301069181,-0.043941694992511736,-0.025419355781366,0.015894591071474912,0.22962682823625635,0.02196565761093635,0.03919900314140719,-0.031249248917346095,0.032655332314502634,0.05554577297682242,-0.06827650808538764,0.07061893416025235,0.014298148843018001,-0.015157536117598399,-0.004792284712451433,-0.0884103160906424,0.08261112024321031,-0.0257550917310057,0.013764217288666534,-0.011942228333759406,0.03593784592915859,-0.00223724716918687
LRPAP1,-0.02527314307483393,0.15026689518515385,0.15247159194228138,-0.02238019128463718,0.0499883242222156,0.06603253393094662,-0.0211917618615508,0.006078333542751604,0.2620858214304573,0.015630110229647932,0.05904402104525935,0.10804219611067531,0.09372494241958135,-0.06873304889609733,0.05123277958557162,0.01666821274609548,-0.08759323895442542,0.06863538343408067,0.10293671717822589,0.12962559625626333,0.12498433193476069,-0.03001789701160138,0.07166043894363869,0.0978844414596741,0.06539123333616224,-0.018997328267858327
NID1,0.08181011173829461,0.001470046648238435,0.09500009950240396,0.028760682357937828,0.06019131404701358,-0.010225649020212911,0.07956982770757634,0.08642901643741659,0.4086131206897155,-0.02073016523488371,0.05046351748941384,0.010749372216969401,0.09217443583114178,0.11124219878495774,-0.014405097621693536,0.09389623072614998,-0.016106404409181856,0.13490649802942448,-0.013481053312956084,-0.06393602017196279,0.18503703674520522,-0.06625752238954996,-0.02439315632111236,-0.15269392803900192,-0.12398121109651473,0.11437574049533575
