,MGH258,UKF243,UKF248,UKF251,UKF255,UKF259,UKF260,UKF266,UKF269,UKF275,UKF296,UKF304,UKF313,UKF334,ZH1007inf,ZH1007nec,ZH1019T1,ZH1019inf,ZH8811Abulk,ZH8811Bbulk,ZH8812bulk,ZH881T1,ZH881inf,ZH916T1,ZH916bulk,ZH916inf
IGFL3,,,,,,,,,-0.038736369210078156,,,,,,,,,,,,0.0737484847351758,,,0.019033413138988903,,
BMP1,-0.027423696497450165,0.030919885856347803,-0.024804109362536478,-0.022863301061802687,0.10123423365814001,-0.02419604255253002,-0.027787788206233958,-0.040862906538647,-0.16769019790543538,-0.12202228867642398,0.007311391987260128,-0.16089748458462105,0.16500648771127183,-0.19830501079635046,0.04007513426045945,0.00020949419550545786,-0.015477025207145731,0.12886499233019724,-0.20694603336908043,-0.24481255281957678,0.11477700420151861,-0.1640880300159355,-0.04400563068780309,0.14073761380874666,-0.10490966373771272,0.01416053538995773
NDP,0.054139207019245836,-0.056656699263813205,0.026203747696826617,0.04282281794478693,0.04055003819453855,0.05736961242815984,0.11228591631718031,0.04145952029568136,0.008196065063331615,0.08436926849328129,-0.006442019315513644,-0.1346372225644158,0.12446892438553377,-0.04674324130606607,0.0333321691584692,0.06037538608690569,0.011695370695981864,0.02413819440381492,-0.03529163202733089,-0.00428312996635329,0.0006505576613832313,0.03274993946057499,0.055615505826547236,0.02737032300351232,-0.006251542281709143,0.019528264568937772
TNFSF18,0.09332542973330277,-0.021385901427824032,-0.0075356935395579,0.0032405942184604557,,,,-0.040641988359724594,-0.05614556246494431,0.022289499283908876,,,,,-0.02542005053757001,,-0.017566186237007262,,,,0.034307977444960176,,0.07206358368315258,0.056284585188569006,-0.11181441471568468,
IL36G,,,,,,,,,,,,,,0.030960705885703425,,,,,,,,,,,,
RTN4,0.0526856383278472,0.15888776112003103,0.0585943995528994,0.015745166763589377,0.030975677853243854,0.03147437603260345,0.11725576239604724,0.13477172419007416,0.20362762618416627,0.16299295061733385,0.14411777351291818,0.5586214938545571,-0.02829723596627561,0.3498488307916271,0.18554358826863782,-0.06941264482962672,0.08407725256625018,0.06291197247115235,0.1255346697598635,0.1371997239348477,0.01595576894120329,0.26350636930747295,-0.05608524675547138,-0.026020742005212892,0.4919834753116089,0.00601128125661594
HEBP1,0.03195383110482706,-0.03203787433079929,0.010970876830186146,5.480026414730096e-05,-0.09056386477790486,-0.01184333128674839,0.05321972409269225,-0.014252905007384369,-0.1129188374823385,0.030669644456235306,-0.047803109639763336,-0.218533489171945,0.06010250698366757,-0.008341592134178179,0.02291758912218126,-0.018377983076334044,-0.0326159478608287,-0.0409287413873138,0.06395411464008671,-0.03823899914872425,0.03553256964554556,-0.011317016491391729,0.06182997709542858,0.057514100018400384,-0.05655251703422272,-0.01571341836460611
WNT7B,0.046223093455830026,0.22158193469057505,0.03194423970531162,-0.014241915220013652,0.02801527078268583,-0.004868225898103504,0.1390069896625848,-0.0024601092396345095,0.20351663316493737,-0.043849040221122015,0.021954986254386237,,0.03165563673565756,0.09651198734509267,0.024929345437680633,-0.03797878638941621,,-0.05704960461156716,-0.040137737608460546,0.012108888626582262,0.0776295392790271,-0.00502855112576199,-0.019921616611257603,0.005052830593222818,0.034468929366303476,0.11979798992976023
PTMA,-0.005076150927105908,0.0040165326086862,0.07885618113325132,-0.01133264140488667,0.36626278384334016,-0.03176142068209974,-0.15544120006570009,-0.08921453033436771,-0.0019118946894914953,0.04451770818076197,-0.11740461445207337,-0.6776610516146659,0.21263221059168078,-0.2989441068610155,0.04835690518591603,0.011786699186354076,0.03282091483221851,-0.05443001276764618,0.1862909511200726,-0.006704993622487717,-0.01910213234841753,-0.09847891435842564,-0.11244812821516789,0.055401170124205514,-0.11792992275889667,-0.20563145111428022
FASLG,-0.013362908970607204,,,,,,,,,,,,,,,,,,,,,,,0.013036680568998099,,
CEACAM1,-0.09170852476708277,,0.035387990464984045,-0.00657535705988651,,0.04906458867953226,0.023632091927283133,,0.007113042248515264,0.0343494657171302,,,,,,0.04742518919994084,0.013548402954365237,-0.008441000602478913,0.056520318717834195,-0.007390268921357351,0.014856852672613724,-0.023447435805003167,,0.01900242096681244,,
PDAP1,-0.002390131307391219,-0.02867093186455743,0.07264038958222484,0.023893526139103533,-0.03268426829337772,-0.046974385859928754,-0.05572172348240844,-0.14478141128793087,-0.08546894030376329,0.04462210044924612,-0.028744665987812376,-0.028045571239169013,0.14662513576427208,-0.17177078355565858,-0.051694471527724925,-0.044951587771845186,-0.06705940991667803,-0.01123300424837732,-0.0621927556495269,-0.08305373222835452,-0.02550296071995406,-0.019263633380560065,-0.029171245902601724,0.05821780605992359,-0.04022074932585864,0.09619018047082387
QDPR,0.11409421813367121,0.16473797727038172,0.10433175784635133,0.022135903558810753,0.16085370754883568,-0.0005934263784790548,0.21624345712361825,0.2198667978658072,0.04416672660154434,0.14368159457295576,0.06347946481769168,-0.5161224878573641,0.1259871406731479,0.07385947347449728,-0.08004580902174523,-0.10087407867431217,-0.01723354070204196,-0.02988006790472427,0.15020281585330778,0.18983580402118574,0.003930870034339781,0.045789491898525075,-0.024743138641188496,0.09203202388020144,0.37352137033052246,-0.09710294681162863
POMC,-0.018184644502176852,0.09866170268773933,-0.06305619497632184,0.021834473540598347,,0.0017904035076914792,0.06929932207216695,0.033581968649641476,0.011306334313057009,-0.016041687317873275,-0.029843038615158583,-0.10422662959273768,0.07980184513290055,0.026278664550648517,0.025098878801838108,-0.1034562191705432,0.041779411427907,-0.0010776210774224805,0.04466333678938435,0.009473795570050044,0.022647876658916634,-0.04838343337376584,,0.08336267807127869,0.024853999130910482,0.01958950697440844
CCL18,,-0.011433540227561538,-0.029248967917841012,,,,,,,,,-0.24291414453065574,0.0863976852701212,,,-0.03696432899399441,,-0.04792591549506311,-0.12250408099619686,-0.1958577564486232,,-0.10543090917032692,,,,
CCL17,,,,,,0.009610476564403446,,,,-0.01989265483985892,-0.0036060504329092228,,,0.017161522458018236,,,,,-0.13731186233286485,-0.1617485020867509,0.03854444479227294,,,0.027196319492609256,,
VEGFD,,-0.04137467274091274,0.030863027926453773,0.001806902330851029,,-0.007587082128762799,0.004281684704538576,,-0.030590205134270743,0.040526764978590306,0.019011531547092914,0.06453535776341233,0.041562107207918315,0.06132734179277898,,0.05845088470934067,0.05700643023952551,,,-0.032770384828445784,-0.029520764078610717,,,,,
TNFSF13,,,0.025886876816448842,,,-0.024504812955747343,,-0.03430249153219525,,,,,,,,,,,0.0225712045971753,0.0180629513012487,-0.011495454580670722,-0.0675894566871506,,0.04409260806325605,0.04736462722941803,
WNT5A,-0.020485381974653553,-0.04056802483168826,0.03891448101149485,-0.011697337326568621,0.13037619650018753,0.011718254660976772,0.15450525379830612,0.009225025295646323,-0.12876335530267827,-0.0013762929258853704,-0.07175705573934658,-0.005239310867379276,0.10453207453770987,-0.07868109863787157,0.001723738861337734,0.060837008179653165,0.052000533010705174,0.008558734749017463,-0.05994168490661867,-0.0795608272396485,0.006251981031563145,-0.07491355525566952,0.0069088456040656485,0.15143296268836434,-0.09889698292958063,-0.02507838343425929
CXCL8,,-0.14856844446512293,-0.12093056858692289,8.727080564600437e-05,-0.3067582304823068,-0.00954583183442744,-0.2524375378197431,-0.037463129539434384,-0.07858384929749605,-0.10662232468833506,-0.05389389050647052,-0.1920810313551698,0.02196097685306667,-0.017819194392686394,,0.022818133358016423,0.061154608972556534,-0.024465997944505963,-0.506561469687637,-0.4644671207433527,0.06479007459705834,-0.0950463568057987,0.039115442807758576,-0.02303478789116058,-0.18846973553787677,-0.004087281573156207
GRN,0.03452438216565871,-0.08477743943831158,-0.05201342812034859,-0.009874027453175964,0.17864221884276832,-0.0485207797978214,-0.05727594853496519,0.004661610321631273,-0.1222371006101071,0.011091822136258176,-0.014653601371309239,-0.36626597608475175,0.03540095758495998,0.060805909048855925,-0.018834842650706677,0.07415938715728876,0.03945323091519494,0.0580075509868188,-0.15840140807186037,-0.1338802055326563,-0.019338605280709104,-0.16227504057835354,0.02828545518735898,0.07012371945935802,0.1551198563582156,0.013964186207120486
MIA,0.06341289866256623,-0.014157591540700652,0.0455450278960957,0.010891833224044183,-0.037883940884047916,0.018530798246866802,-0.05147498302305398,-0.007260866731943418,-0.049555710698734004,-0.03555134994483737,0.019051522265565717,,0.044365661745464934,-0.01298574539597243,-0.008416377542974649,0.08774296405618627,-0.015726290240448113,0.006160980071707893,0.13884525185653407,0.11285419740147397,0.050240517590047044,-0.25345670997255487,,0.07978969395711641,-0.16067898340954176,
COL4A4,-0.015031686482069527,-0.011860332802198396,0.03588367139053223,-0.008180740185553759,-0.006197588002087721,-0.01796504705215366,0.06005411358956399,-0.033678656115469684,0.029479407138051385,-0.036844480722130826,0.026994722060274826,,,-0.028814507319922154,,,0.021593568006372656,-0.010986177228981372,0.035930286318878804,0.10328274277530701,0.022150042876600218,-0.019709114999979096,,0.009932455857545595,-0.14544147375025318,
TAC1,-0.05456406760618381,0.2052484494969478,0.1511795774134382,-0.0027679883114300557,0.21245864536531206,0.09746067870948721,0.22351723807516577,0.11132292493226138,0.2369225338152757,0.2500532736828388,0.07461106135626336,0.42886465901587423,,0.2993744017607563,,,,,,,,0.10548258466697039,-0.05973597471444602,0.03332423409298921,0.3116036047870949,0.15636478762455985
RARRES2,-0.03277431463764554,0.09361086001376691,0.09684616593351955,-0.05332622196007896,-0.19717932152876386,-0.04248581103411108,-0.2970064629658764,-0.012159608385648302,-0.193690474187816,0.15930842126470948,-0.02147524022565169,-0.16355567626049478,-0.09371183728427322,-0.12897117161846894,-0.07579772548509657,0.08168140323141652,-0.010834748143778635,0.03427735166533321,-0.3552820268913315,-0.34007059698094405,-0.029539202198885808,-0.14769262818397275,-0.12057538694154706,0.08517435271917358,-0.19992448967705218,-0.0574231147100325
FGF7,0.019325284709066925,-0.06418550283707448,,0.02765852921272402,-0.02901995641276351,-0.029127796261088707,0.10338040694336154,-0.026826617407814796,0.021730783066115266,-0.0070874203028116565,-0.017516943407952547,0.06455266173941918,0.06815983585310735,-0.02681716637400484,0.009009014896475499,0.05073617199002693,0.004270621028955967,-0.025302058191990606,0.1337920716846878,0.043783414806760346,-0.03932597623660516,0.0028813983349538982,0.0070473885606718864,0.08337896197799277,-0.012935531727433162,0.05183665793112943
EFNA2,,,,,,,,,,,,,,,,,,,,0.06534750876294851,,,,,,
HBEGF,-0.006339060087316619,-0.0360131958329442,-0.06594196154641015,-0.01396256580020008,-0.06650899278172491,-0.00848596577277467,-0.1814317452834342,-0.005681165057663943,-0.07443206291616064,-0.16465066737962014,0.009867832810890126,-0.29443006237997293,0.2013387088116914,-0.02187884860550028,0.0077821412149889505,-0.02400490420115179,0.10418835701009203,-0.0510704079309392,-0.05165273869720476,-0.06404611299581538,0.11580562294112498,-0.13399378248475713,-0.0008953503602685986,0.02731541476777015,-0.22987028385723568,-0.002435684999741168
CSF3,,-0.08623940376208981,,,-0.10734430679092001,-0.05880505027108042,-0.13198967636794345,,-0.05529710127700476,,,,0.004932028704817396,,,,,,-0.38351144187980635,-0.3952633558870059,,-0.05418440524556212,-0.07344886627206715,-0.027170003492784447,-0.1264964821321644,
PI3,,-0.06029366721073018,-0.08798364106989737,,-0.1188391083703911,-0.06666574286867258,-0.10709110910405564,,-0.04198802425434357,,,,,,,0.0371995445862738,,,-0.5073103818129511,-0.49203528603724095,0.017129978973675433,-0.20093227908536124,,-0.06428320643249202,-0.061962425835609625,
PCSK1N,-0.039475360219099,0.16364581604408612,0.14044458905796997,0.1140098361686987,0.20356282027669317,0.049746058835926255,0.13766147207051974,0.14870259388978938,0.20384778270144283,-0.046715544804380005,0.18187291186665536,0.6339384981472458,0.12072638374635863,0.2836887618423871,-0.013691493700610277,-0.02328147430186123,0.06711144102349986,0.02296370416190588,0.19667115532488114,0.29877311169774423,0.04309506334264331,0.21410497726004,0.08345910376506285,0.05525314629886532,0.4398733247338159,0.19833596566095832
NTS,,,,,,,-0.048056720588853664,0.0399697999279417,-0.027696684185220626,-0.009605676589826024,-0.09086529659786638,-0.12069619800146231,,,,,,,0.1608181361926629,0.15592176489484139,,0.06626766475629495,,-0.0052809433775511784,,
SFRP1,-0.012638637312453736,0.057545297784013634,0.053370612098288986,0.012452148893258422,,-0.01937887698181714,0.0594003084616662,0.0747875183518075,-0.01426585658185635,-0.005089863097573217,0.027736402092093455,-0.1827187888377223,0.03804471531551774,0.0788894010121192,-0.03125867221520912,0.05774132143861964,0.07272457001137028,0.03623580408053467,0.055485026053409,0.11007569473327294,-0.025711842891937967,0.08783458339945027,-0.04821493055546455,0.05196859547420696,0.07082749700018645,-0.012632777968846867
CXCL13,,,,0.04999787904222555,-0.036378551521313196,,0.0458685090671797,,,,,,0.08971532905892493,,,,,,-0.09801743791489072,-0.22005764701269054,,-0.08071089543812175,,,-0.10074992115996963,
MICA,0.03893520624130958,-0.0595326398222902,-0.10690027936341578,0.05001282190154105,-0.06457686051616937,0.010596729223100707,-0.07548488294583335,0.05231078725218235,-0.036882945810470615,-0.019187943801153202,-0.005687024631374582,-0.02122823386290992,-0.005467960782946756,-0.0998695186721948,0.05113864726412129,0.008993165229051114,0.10737358225705963,-0.037265813017364466,-0.06742696982113955,-0.08066971155631204,0.05638503204064851,-0.027696727599034788,0.03927093437013985,0.09070098532988514,-0.1276547229636056,0.07822967957304089
TG,0.07010640715352455,-0.024108344553044683,0.043147172181084284,-0.024924142903771335,,0.030136557728670865,0.10949389950236905,-0.0038857237225790944,-0.024697071300353424,-0.0037060178353816088,-0.067583524688049,,0.047036962319999834,-0.07038252476757643,-0.009636094148617876,0.06458742086623796,0.0023631406438063404,0.022849171188970004,0.08162379149295178,-0.00157242359989556,,-0.008242116324409762,,0.029073119836151573,0.002489053777740256,
ADA,-0.04317416427950285,0.06959312307141509,-0.08089256381390637,0.03350543314652289,0.09732689424480943,0.0220954447704006,0.04804364582406644,-0.021659345420007903,-0.11575518281329766,-0.004393732863212308,-0.0516270409721585,-0.26744761646713444,0.1335544231882862,-0.12336710100938553,0.05521342298303668,0.11972811608303334,-0.07496706371661462,-0.08921688070826427,0.0033095780090320486,0.0496083569735061,-0.04682941671296117,-0.04103248560203845,0.08739898700255383,0.14647766964013753,-0.041205514449513335,0.06643259559568344
LAMC3,0.0006817111807808222,-0.005358474330625803,-0.06097963807965497,0.028675363478109905,0.09645380974710767,0.015367555394420161,0.04761954651777796,-0.08316979638295313,-0.08670223532049391,-0.06924482242002099,-0.01451087489893836,-0.1276808588839318,0.10115708700060452,0.032252511579416325,0.13246711724435992,0.04021579001653692,-0.030335121292430045,0.01969929469418371,0.020000963882190734,-0.045870071950620615,0.008078033376278458,-0.10338377495101,0.009126144418687615,0.12048917805721687,0.03032643012835184,-0.06535775885507401
CCL7,,,-0.026792754038754637,,,-0.04498931907754636,-0.10414974243528463,,,,,,,,,,,,-0.05172353405364132,,,,,0.010814865440316464,-0.05530079405297105,
NGF,,-0.06920529982581272,-0.07468462252216834,,,-0.04277710842032413,0.04224106085898742,-0.0723471882570125,,,,0.1425245075587172,0.07349922673962342,,,,0.04245714336661413,0.05736600230772549,0.025698879229448697,0.10756278125687772,,-0.11950598829274513,,0.016332570480745635,0.004440644172709765,
TNFSF15,,0.02785939170568066,,,,-0.025005595835170268,-0.012632260902183562,-0.026633964116536478,,,,,0.005575184602116886,,0.00415751962085199,,0.02629857229244796,0.05703574885806316,-0.04374976729674414,,,-0.017359932934708826,,0.0497599243305279,-0.024935471216122326,
HMGB1,0.029147131451982812,0.04290497103797401,0.14808042804401,-0.007782041257201683,0.3793496816310842,-0.02878075231197353,0.05159111293621165,-0.0766920217346581,-0.14207772914957992,0.09843352598313311,-0.06040724685550858,-0.2764544413864502,0.1405848967381874,-0.008883586691187629,-0.09017994852383605,0.08058748427043641,-0.08158699853972494,-0.0023588012144952534,0.026619491857774628,0.010647364812300731,0.042744290839630855,-0.023492432611674847,0.021356343987603613,0.002333133333886279,0.08406101783687046,-0.10923556844044585
ITGB3BP,-0.023593576923756236,-0.06549254512807687,0.030619272570289447,-0.01028288374040514,0.02278359827759301,0.047516827008899816,0.030290813637552396,-0.04398038430434837,-0.046416698512636995,0.023334046623100645,-0.01858790682149346,-0.05801827545171444,0.15291192059913813,-0.15920173950958458,-0.13703707157734246,-0.04063285405520038,-0.05929885870369429,0.05970952338417947,-0.05461837480108216,-0.02064372993193247,0.013349403056433002,-0.05678753565870746,0.05531291829287324,0.12652421420082907,-0.06958591117243426,0.06751984306588138
AANAT,,-0.002523761640088018,-0.00814983608263451,,,0.011406143799009692,-0.0008261009487534844,,-0.007159828945222714,0.021303753760243474,0.013890265541913,0.03589983731824193,,0.005537396781409921,,0.10754321156910217,,-0.03253360714122423,-0.030711512611289585,-0.016250685506275092,0.018925977957908405,,,0.004081667946473112,0.015401832078646746,
RELN,0.023261374570963545,0.11154523410501846,0.05012216861498341,0.06287056691648919,0.08775677309349539,0.013896998249126987,0.03848098551558416,-0.07398348311528154,0.13289535680446185,0.05480738976868576,-0.05444868899609951,0.08628764921210853,,0.07516949557732681,,,-0.03858746501690769,,,,0.00654047753911261,0.042311240788759835,0.01775425814979981,,0.07106630540154725,0.02744256212249459
IL15,-0.06682605224184487,-0.10766247293067877,-0.06396583249951886,-0.019849806236103294,,0.029661933048097236,-0.04604825960231025,-0.02834395028640573,-0.031950333300659446,0.03142886614746073,0.028211866746741733,-0.11016919700959417,0.06223483874957019,-0.019551378182453123,0.024506733957919233,-0.03709934532193284,0.05054725445051322,-0.008002846354889416,-0.012646869001538415,-1.5048624274999213e-05,0.08034958278792594,-0.0020251044590683096,0.02119602588603151,0.09994498602527592,-0.09447205554950756,
UTS2,,,,,,,,,-0.060316515258298176,,,,,,-0.03433898462359696,0.09223013379293919,,,0.024471853394406454,,,,,,,
BSG,0.042238432172133196,-0.09444872099033687,0.1237933467526718,0.029513330497207616,0.10562898009398135,-0.018386634149660675,-0.03920673042459182,0.07879712023953805,0.14640836330194593,-0.21489407746975325,-0.011391813397767205,0.37833681093161065,-0.07973538859636727,-0.18172660229203677,-0.010621689675116223,-0.005956154844444107,-0.001134946866875168,0.012916866190366083,-0.3345762328124594,-0.2680579201413266,0.14181295712043784,-0.1708280197121911,-0.03779682137729373,0.10439509450063601,-0.1733953554972115,0.07971315616323223
ADAMTS3,0.023402038881048696,-0.03629109840725947,-0.020900379390021286,-0.018998821080145074,,0.02566406122415431,0.08311282667315194,-0.028349888100639885,-0.15313358761073229,-0.052428490411554916,0.019852214524674974,0.10047739816314347,0.03407296449097129,0.02831872582157921,0.05872154665039758,0.07014755297242635,,0.009808411452273546,0.1290903634498569,0.11216362689270773,0.05420418114348962,0.06229261394788369,0.014444123071525395,0.13201021237953656,-0.04513705549960221,
CD34,-0.029785202976723515,0.13059727653389355,-0.03607342441641516,-0.017243532654072167,0.13788732297637296,-0.02039246219477248,0.03681507985992158,0.00166493746714755,-0.11350968903025921,0.033266182418501634,0.01733966089699197,0.0392130830677023,0.1658704910252174,0.04376217904071428,0.10681341872517612,0.024547717964736825,-0.069370090115464,0.10857073667019305,0.08927160450453704,-0.03421415365775116,0.09015321127864458,-0.12898344855853505,0.03233167221513029,0.10569161784177952,-0.010212791157263756,-0.002500641862878667
CCL23,,,,,,,,,-0.029832969129828628,,,,,,-0.017819238943402704,,,,,,,,,,,
PLAT,0.017173405553174342,0.016555956242070805,0.10355814213809614,-0.03222885058378108,0.17133346551704873,0.0026706909277210812,-0.06105281085299931,-0.003989691451850936,-0.09714071790978271,-0.22296900034931552,0.03696148598343474,0.006798367705953818,0.05737996484408045,-0.10029050057460678,0.08651212198761783,0.01812095022098311,-0.0005882394667180043,0.10090194388282442,0.30115223857413176,0.37015113209373507,0.045376547123541236,0.08592454862068462,0.1195007878274295,0.0969480504851456,-0.04555411421061122,0.08348655288123026
NTF3,,,,,,,,,,,0.014704175107677483,,0.008220117600962988,,,,,,0.14221058229469066,0.24746099555577242,,0.1321378739022138,,,,
LTA,,,,-0.020780324892451296,,0.07187124906719329,,,,-0.02424674712001916,,,,0.029545608194797755,,,,,,,,,,0.02140751774559364,,
CKLF,-0.006292157966925087,0.057569003306034434,0.014479262563216529,-0.017131403819604,0.1066819585102346,0.03967985487319232,0.026220498052235388,-0.05422692717416113,-0.150058989016459,0.024569897758531682,-0.06962392584647364,-0.3048447423043792,0.14220865369712168,-0.1982176917395474,-0.11457175310834457,0.03177308998087901,-0.036498247413825194,0.013721434932329241,0.13547405700283252,0.15206620168305404,0.03673218827317201,0.00025067930996873955,0.07509611488310622,0.0010209966130271535,-0.2023317781183892,0.00040473270621382373
APELA,,,,,,,,,,,,,0.0519924777256964,,,,,,,,,,,,,
CD24,0.10272403814905391,-0.14669740384555308,0.10926278041579916,0.0025968992359285234,0.11123700626164708,-0.029861216445105695,0.19304243839484653,0.11917000206368106,0.0647265678174051,0.22953990705998836,-0.1912398671664563,-0.05779781178684342,0.18661029511989183,-0.02265617911108625,0.06210526498537991,0.01039627304334303,0.058204013591185114,-0.007201008947311278,0.29439590719653097,0.3366464122085118,0.004500530608332901,0.2093053383208675,0.10955324665567216,0.004228821335828697,0.12935727189595742,0.018926563939543038
HSP90AA1,0.07405312849538072,0.08845514391435734,-0.009240342374503689,0.06010136420599257,-0.14700192948022675,-0.047501445346974334,0.12697570369432418,0.21252023430362796,0.2204833884955704,0.06785803404180264,0.0021843483231239152,0.6380619540027308,0.006071271206844698,0.3452741081283335,0.12559853965206988,-0.08852109816627013,0.0580473081100375,-0.03477925487697854,-0.3507178166655619,-0.38220340603970787,0.10279104733476244,0.07097133146600419,0.08201098604468689,-0.05232825486465827,0.3472861913852389,0.004096008353014899
BMP4,0.02231858823722977,0.12344520776028987,-0.015636452459507174,-0.005592923670725613,0.05334510993683429,-0.05880766470802722,-0.04124788345617653,-0.027579185838058507,0.02319253197371771,0.04246437353647309,-0.062373101987572975,0.0694165828931952,0.003106768308177926,-0.0029034271281454466,-0.018047532621862292,-0.03205707548181338,0.06579854247426369,-0.003270456919951196,0.021591304630093427,0.029900532091965977,-0.02541428724543012,-0.07550319058486744,,0.09700288437586886,0.018092218366137686,
SCGB3A1,,,-0.008120440011932835,,0.017605289950503693,,-0.013224946579370019,0.05183433116126571,,,-0.003545438585544454,-0.03194020861973818,0.024982005618341605,0.06518438905643113,0.0059438268766795225,-0.016127512884949836,0.0015278999573833305,,0.04943341952230833,0.021772912406719674,,-0.01595940273829479,,0.044047828263211984,0.02418009120673044,
IGFBP4,0.008447336163242879,0.005481114554210934,-0.08019525430478894,-0.003677213446284784,0.04466781902973532,-0.03430119073781234,-0.08045410180455737,-0.038139342810672834,-0.13439299677375305,-0.11580726116265193,0.04049371896397521,-0.19307126321539397,0.14022462473965772,-0.04569761083239759,0.16238554886280315,-0.017947187321729903,0.04696492401008148,0.02769220502617469,-0.10016981929145058,-0.16770266277318935,0.0787262390194102,-0.2749748123223946,-0.02562312280580846,0.1288902579461595,0.09222055066051128,0.08395716094304764
RSPO4,,0.0221251546376216,,0.05551770047847146,,-0.007411657894267101,-0.08286400445061896,,,-0.021808289461653946,0.03657849932086419,,,-0.024551421122908357,,,0.053331751617007025,,,,,-0.006128920010152709,,0.05889671952780221,-0.0934541225439769,
LEFTY2,0.01030090430364105,-0.03260259800135981,-0.015080852434948977,-0.021673037437889148,0.09591051313933165,0.0033412577329589876,-0.05674654311953247,-0.0062146075534492955,-0.13948589712726306,0.0019483183720868452,-0.021842156915131323,-0.017735072172676006,-0.043536946082157135,-0.01828275573273564,0.21501562231540994,0.003922740347146824,,-0.012776624960265597,0.028684072751517197,-0.05126322990606752,0.010240940362609014,0.012615258466368998,-0.035340235230563066,0.06057899379110661,0.07973274797926637,
PF4,,,-0.0014675161843979148,-0.03200451939698244,,-0.003408329989093131,,,,,,,,,,,,,,-0.02588231208413657,,,,0.03878142640556084,0.06771349868454987,
ANGPTL2,-0.0006359828340986004,-0.08722721740414932,0.01953501077613127,0.0528481084115739,0.12266590141936774,0.05612411144283055,0.036848685873148414,-0.03598000089528876,-0.06548377984977098,0.021257402939596406,-0.044456620180392134,-0.36083868310755396,-0.1282114640428664,-0.22368825726468236,0.12628746109655503,0.11949697850924923,-1.3420995167687821e-06,0.09610764095746746,0.18780363443369885,0.2926275381731324,-0.03917740568593779,0.07318516527988946,-0.014287377411280089,0.21343115548426564,0.05952062190880524,-0.04851754767192479
LRIG2,-0.042240107774382425,-0.020500745707473234,0.07603463446760454,-0.018257356325177082,0.029335052014270162,0.04858927239762406,0.04194145200718753,0.062194040988272324,-0.05060873890548905,0.02441833951889585,-0.042008873605499285,0.03837462992860967,0.04018312222197901,-0.08148736158343213,-0.010679028143487534,-0.008011953023226255,0.03081976009723324,0.032316361132285844,0.03595501440280987,-0.006160449449435041,0.09760199702947271,0.09344349533464982,0.1023825358260684,0.09607286911828307,-0.017643549321587865,-0.007162144023146203
ICOSLG,0.06995754719081597,-0.03373620620064561,-0.0027139440136618497,-0.017236892005105166,0.09495069413851563,-0.00463569753731379,-0.028814103947466568,-0.03454092359253447,-0.10406066441968893,-0.00011523297366318626,0.004620865242778212,-0.20986024985770652,0.020753294345277555,-0.10834574116629665,0.053230067332095746,-0.04542911610375354,0.06633139816395414,0.04954316112798783,0.02560449122201001,0.09289653549008481,0.04145642501884739,-0.059716103050040346,-0.1021019708544282,0.09534868670545171,-0.04230309088090188,-0.09153969797741436
WIF1,,0.3386511250009752,0.024376012226925127,,-0.028575385520062523,,0.16051027059055697,0.06952606248242679,0.21236032588680767,0.03184190329499087,0.04568426815417716,0.3006736477117971,,0.2582377951309109,,,,,,,,0.0360457560703349,-0.045577956104062005,,0.022052421545813033,0.17695754911035444
NPPC,-0.01567946926811683,0.06149093254792795,0.040163277823959086,,-0.03071695586700907,0.06876487515269222,0.025829410056325677,0.07689993393824325,0.03762092800950101,0.037200918195778816,-0.005884471530182657,0.16135331954967094,,-0.181519625427387,-0.019214971967671402,0.040832093341394274,0.006974627317775747,-0.013032385617555283,-0.05855876514032537,0.07288686738089192,-0.0020723466978949767,-0.014785722689200278,-0.05112665039725529,,0.17645068806585473,0.18852529044274408
LYZ,0.06019514501593808,-0.04709472208689016,-0.03585199111654949,-0.00577831019631298,-0.033091444825431096,-0.006032807107159515,-0.18314196454424367,-0.06313143159852895,-0.12873454949373447,-0.013607146600524759,-0.042638962631667464,-0.4330403141328065,0.10467292731178371,-0.04788758719633102,0.10891376081439642,-0.022799050201907166,-0.14159899708875065,-0.017436912346347196,-0.052548770885015,-0.024506145019453664,-0.0035615606795440357,-0.020725492705095157,0.039976119437608,0.09939748900328486,0.12703001362205124,-0.014367876351816857
EREG,,,,,-0.05407426760761225,,-0.14564282148742635,,,,,-0.07590622252664952,0.034681739440191574,,,,,,-0.17805218940083858,-0.27984955570035513,,-0.03402873206098044,,-0.005618434901313553,0.023938845982050764,
SPTAN1,-0.01570465580541912,0.14313806642776827,0.15431539361744467,0.06718810487072875,0.1936398283420593,0.08403198012924366,0.17996114153062612,0.13171610492061134,0.1454620232844243,0.16916626832142226,0.016155653295337705,0.5800712435970521,0.13417817370461535,0.21244667813263401,-0.0009638613129512077,0.036078160271428045,-0.052445648771258235,0.05135616098557715,0.1981016658620163,0.25805026556144656,0.021341274559895946,0.1622108081704766,0.06859855935900507,0.021040682421436564,0.40635480626152204,0.23397444090621805
PTH2,,,,,,,,,,,,,,,,,,,,,,-0.03443603951281394,,,,
LIPC,0.03226892532219729,0.017425410455386765,0.004122497227400335,-0.015026023965695074,,-0.004060435494771506,0.01878400451022145,-0.04080845888760069,-0.07841327543866528,0.013042255046119416,,-0.0067159321798024064,0.03953272977895913,-0.05950748877345626,0.032654724001810735,0.0791078992015496,0.03955261941084948,0.13274875280065193,,,0.007894903511798158,,,0.053033903668702656,-0.06753013828373829,
COL8A1,0.019586843680165684,-0.1365358068850478,-0.09705151184241456,0.04500884223473014,0.04108911083738934,-0.026450047949638837,0.011021610531431079,-0.06324643089137572,-0.0679533846324821,-0.043486585294474765,-0.020992579459980912,-0.23525191370966383,-0.15349212232481865,-0.173370382022096,0.08452924531290334,0.08862731426174246,-0.015022577304038595,-0.012471371396618032,0.1073271052610864,0.003558838734312143,0.07296514966795137,-0.1662934629515654,-0.016943434827867577,0.02604035456465025,-0.22120148615382082,
GSTM2,0.0594458941561107,0.08148513296446332,0.03705139019048674,-0.030951398743624806,-0.010087728191593329,-0.008992732595190572,-0.045598114339977444,-0.0030659413809895077,-0.0030232739759645795,-0.05435924313469018,-0.02658363368109677,-0.035750453827552924,0.016127644067398344,-0.05916233552689347,0.013840834062753504,0.09480778602913555,-0.028131167475726953,0.02183652328658045,0.057026267366644276,0.136032533486118,-0.07138330634259427,-0.015500176310966665,0.014938902385999113,0.04292649416086743,-0.04695759657481283,
IL4,,,,,,,,,,,,,,,,0.03492008128227138,,,,,,,,,,
SPX,-0.020015117388490405,0.1112171219498858,0.06187224145542026,-0.03767667723071064,,-0.014420932943740427,0.11694824129447291,0.015982722016881428,0.16356704305067188,0.1576759076177312,-0.005606681915503822,0.14882013191028498,,0.2390904090016856,-0.021462786946143668,,,0.035652494196536065,0.07501958422722735,0.010656690518732278,0.03849823668114201,0.05700451077639161,-0.017061235645400564,0.0972524825939272,0.07004396899944294,-0.031608385384251224
MFGE8,0.07791472416540458,-0.0981560065402062,-0.06960164641036103,0.022555707519970627,-0.05362584958306865,0.00449680263183206,0.06332879749806326,-0.007331015803436489,-0.03185172818869258,-0.12056314763677878,-0.060418544143449986,0.14680213720988983,0.02367847831558123,-0.01671654227739227,-0.033170321318088856,0.028975859931934984,-0.015940535069190697,-0.03640220153161145,-0.13816540661304733,-0.03890637813931217,0.09653958117977948,-0.03532491396269778,0.013174381725384694,0.10836839993559501,-0.021799593349444667,0.10268076858791605
TGFA,0.10374677040198509,-0.2174216154855163,0.11667932818945796,0.02078299179986978,0.061069143027569266,0.00723998069381643,0.10879906249348124,-0.03894043891619378,-0.10346858032800907,-0.13161281364320648,-0.002433700184695374,-0.16690460116307707,0.03712957299904824,-0.10777138182369107,-0.0461682009987837,-0.1421817579496744,-0.005301051762803535,-0.09937292474658188,0.032015947265110783,0.10348893448502376,0.03659143339439536,-0.019342471950619333,0.014777324014905386,0.1128764956187587,-0.08335341103454962,-0.0546143237463576
SLIT2,0.04334234080298005,0.3017091603081148,-0.016551968798703662,0.023390023528270423,0.06996006419534727,0.039463864894167554,0.04182496000501162,0.052525690217029665,0.12773924140881815,0.06989376121322173,0.050672616116997984,0.29310436493080805,0.028516229650966715,0.2804977104845428,0.047140421241250625,-0.06260070598794296,0.027455734553979563,0.0024784703828822307,0.002773653197799208,0.007774712057360243,0.02941946095768667,0.001587487441036672,0.11848505755620721,-0.005580617965254449,-0.021137120765795617,0.12389250446040712
PLTP,-0.12616765665442095,-0.0464096821946738,-0.018934690050456948,-0.0615946616582692,0.11067082882616251,0.03350842946961812,-0.20653578418589302,-0.07809886667482892,-0.18128272251312216,0.10961560759010754,-0.18669853372446246,-0.5441461278050568,0.10347295254099456,-0.019149563400193824,0.07642420976766827,0.015241047154526162,0.05822973669896364,-0.024697979722269735,-0.12149820903998843,-0.16921814577864017,0.01886927900264448,-0.31887987109364146,0.07341900125507013,0.08867154925041823,0.02781936046048307,-0.0006051838414316765
APOD,0.05605686440286701,0.15404370840480794,0.14894334210587262,0.03194069550428649,0.3106982941804846,0.05196871572499184,0.2436259661991922,0.016825570139787725,-0.15439352268506165,0.1136833279683722,0.0031901405511803845,-0.4169050314780212,0.10657912302683428,0.2184546819786838,0.2064318093853804,0.07632855535814421,0.0652018455931033,-0.029300428916374896,0.3285541516608138,0.4033550982597675,0.07794088684211826,-0.046209128723022304,0.012424986718099412,-0.031434675248297274,0.2362882315580778,-0.10550396557366828
B2M,0.01733110356392068,0.07705965594228112,-0.027440153967726703,0.04870996402233246,0.08521039873728166,0.013409432904891726,-0.2481363848476244,-0.14136000559899994,-0.23232480244151632,-0.008066127977914226,-0.20897354403013024,-0.6710651743802223,0.2448979285375151,-0.3679269953539069,0.2041148502801625,0.03115388886476382,-0.04897917330301648,-0.004651032255901823,-0.19759237586059109,-0.10711510108212215,0.011933954814347742,-0.3049645209598663,-0.035391161347090645,0.016082257330728888,0.1378791737635494,-0.18321837713486866
OMG,0.0722286491834809,0.19660612201579142,0.2182890905417572,-0.0055696805366377096,0.25480732929889566,0.07550695694079854,0.24123799842052868,-0.035634439966374644,-0.02142899288584371,0.19792327059790954,0.10339545526672594,-0.09938292263236145,0.008428302273829878,0.252874017838971,0.0855387074461776,0.025589129803536358,0.025482190090991067,-0.013264472979485763,0.3344292748485739,0.2990341094211794,0.03394273215195663,0.11717499572211905,-0.09383076822224473,0.13740231079004478,0.4085697532279077,-0.15150923485874856
CXCL3,-0.033823050045440124,-0.07408049495448259,-0.02534735060358869,-0.025519951062527014,-0.1877088807663788,0.025638426105913457,-0.12565823007736532,,-0.03957630382014697,-0.11079072930797972,-0.02813589363213062,-0.022191536148998547,0.1580606834761626,-0.02961244224750553,0.009798472059411627,-0.028740708625439662,,,-0.4411254507323591,-0.34894827442690374,-0.03657695650941397,-0.15037580116550922,0.07748523455376392,0.04465450329828723,-0.15151559213959023,
CXCL10,-0.0891372241468407,0.03689100216797815,0.08051293674651887,-0.014007926836152996,,0.042658333750882134,0.00963173452141661,-0.02615640867307274,-0.10599851826461162,-0.005421192826613865,-0.07749636489213411,-0.04511434378168342,0.012393303005464793,0.0019545607186268557,-0.0021631232304473677,-0.05957821592437068,0.04995062230289396,0.034473485167893815,-0.11564165694393483,0.002117937544271525,0.026412464829149104,-0.05642361360072105,,0.16141742945219928,0.012779365100104634,
RSPO3,,,-0.0064242707251343165,,0.06795911224927483,0.002204434308234514,0.05351313732778499,0.08699088940006637,0.10730770689165499,0.023903237352288227,0.03097837505886752,0.22495404362559054,,0.09262527806722304,,,,,0.14872196093443685,0.18733543672558925,,-0.013271575452198937,0.12094030924059813,0.027928408573420486,0.18308372009060728,0.029196250665283106
CORT,-0.007746739358149383,0.06610842580278142,0.04393447648976442,0.02838778403025797,0.1788376511243811,0.03450862727458293,0.13722149643216033,0.08369475880690933,0.13805725573454425,0.055143289462673634,-0.02299094901479611,0.023936354718400204,,0.06269568152607206,,,,,0.1303296660284062,0.08904351762917029,,0.08846445432819706,-0.01241103005938309,,,0.12084372934699965
NCAN,0.025552713073523567,-0.0025491237877840935,0.22944836789535827,0.030323570805910242,0.2134685116763278,-0.029922937055553246,0.27739537500761363,-0.0017764621962801336,-0.059154636184582984,-0.11343197863558845,0.022229951795187403,0.4030812981375723,,-0.26874219493190715,0.1029091020035059,0.006044653112536367,-0.09968818927193478,0.1185524177336865,0.4403923797418969,0.5015127624069655,0.10634780427318277,0.33024373992254596,0.01357989187005174,0.05690683164922192,0.27703302315029016,0.0361989850691495
PRG4,,-0.018074780296345783,0.008288954028840497,,0.06311391139173064,-0.025489850436113747,0.07044498102016228,,0.02763006372444908,-0.025124112375633476,,,,-0.057822711321909075,,,,,-0.00010794458709176924,0.048281135181323,,-0.0915603914724471,,0.06186258855165799,-0.10662391663558272,
ZG16B,,,0.04967963078393667,-0.0018903995801134498,,0.05508449737357889,,,0.021632842527539872,-0.0020471344148745947,,,0.08904508021984234,,,,,-0.04761058585228477,,,,,,0.06081756571795064,-0.03437374666154261,
TGM2,-0.08149030224448366,-0.03365184332101987,-0.15403400441771212,0.004790512634476399,-0.04921263429263344,0.01535038462361585,-0.2323655513503532,-0.049139903102350994,-0.06460737670199342,-0.059383924099619824,-0.020097814990947288,-0.0170052112550431,0.09637204527244231,0.12167868549279788,0.010952876043978774,-0.10241023820607352,0.009375422773909493,0.060263965128454354,-0.3108028130720972,-0.3036432055701493,0.029664179909852265,-0.131159547490219,0.03381586756332856,0.0853265785766169,0.10035369874159264,-0.017165688802103528
VEGFC,0.02984634494031754,-6.538568079015392e-05,-0.06959803421507425,-0.028837902652432683,-0.05462206132049022,0.018391922974066537,-0.01612537637184097,0.01784863559053567,-0.04425823813612094,0.05092219129414639,-0.0667109260384099,-0.03716272330685088,0.0377607542517812,0.00838421840104786,0.02719668184929815,-0.03489601144331876,-0.031782806729383745,0.007212885673099964,-0.06422310033228747,-0.14635615983060282,0.023301314684032747,-0.03574356927336016,,0.08185933544764606,-0.12821247347731768,
WNT6,,-0.009278576617589627,0.0627614346817812,0.06412061158016243,0.018481704135621033,0.0015761325768625628,0.06044065983805764,0.04533641548197058,-0.03875681061661613,-0.018693620281863884,,,-0.0423288907253153,0.036927299952791294,,0.017600222253291727,,-0.06044099315886914,-0.01081191807420926,-0.019320420839651988,,-0.01576790561405425,,0.07626210886312403,-0.02501553124057266,
NRG4,,0.06598942260531472,0.04395261525759816,,0.04890328413121604,0.02686078597369472,0.034187944129923487,0.0020454385650958144,-0.05629693995093171,-0.003857537349441151,0.0031126080150616527,0.20126309529567177,,0.0037825955220588624,,,-0.11013240061890449,,,,0.024524199185461122,-0.028186102187617402,,-0.004245629897845438,0.06704601628355361,
PMCH,,,-0.08722957786486069,,,-0.017781047598152726,,,,-0.031864597125935507,,,,,,,,,-0.081108278136086,0.036075614656111796,,-0.014494859843995522,,0.03749156510116001,0.05509303626833123,
COL9A1,-0.07794465202764063,-0.046142028320430066,-0.03860928113561279,0.018144293433517127,0.08980987063694164,0.0644477281426339,0.05017803815103952,-0.06024228980714442,-0.05611677896012736,-0.01816565989816803,-0.05057146798890211,0.13145771107995402,,0.030250202845209417,0.012683922850776443,0.09558837637113614,-0.050737267886733356,0.0031497764811468025,0.29483714857239257,0.3033459243930959,0.024108145534768206,0.07763575809070535,,0.09473339999272339,-0.1459459046811642,-0.10224898474505058
GDF11,0.05471176159624027,0.025993341630735037,0.1144371829292792,-0.07334803012164871,0.14283994165493508,0.03687419441062312,0.1451607503727513,0.026457031455158448,-0.08990069857140859,-0.01655230238207955,0.0034772121688015764,0.021983069676304628,0.06363817410144999,-0.12263665186851583,-0.023635229298084322,-0.008681704511754833,0.01108426693099195,0.05381484135074623,0.059059517167795526,0.09228163629475465,0.08633459530328225,-0.0005327472109486743,-0.0011247856937966264,0.16963444567697555,0.016278372974503883,-0.0144901321215793
RAET1E,,,,,,,,,,,,,,,,,,,,,,,,-0.014175222949523619,,
IL24,,,,,,,,,,,,,-0.04057443462884547,,,,,,-0.13556833055304168,-0.1342886661082495,,,,,-0.08460497121002936,
SORBS1,0.006133382863980004,0.046648966471349765,0.06348369175090099,-0.04728546434763116,0.07989402118867106,0.04779791174550636,-0.009827850807688538,-0.029462972543345425,0.03180920979465393,0.06983955935782467,-0.07897004597596503,-0.11189201580647347,0.07644819383316478,0.004772331931036293,0.05890466813167279,0.03678853737038465,0.03282003723785958,0.08064927588694766,0.08325156186984396,0.06568495118337178,0.08586465278546311,-0.06344536917206899,0.10819892133644356,0.01671672070980507,0.1289187412178459,-0.024463491036882657
DLL1,0.062067134414588956,0.08977921700578524,0.11726700775207965,-0.013707969050624675,0.14388976457274627,0.0488435243260205,0.1729044270163832,-0.006701724877486029,-0.09481785795668225,0.10802908554111529,-0.005230155774074466,-0.10671254454801135,0.007338600555685737,-0.10183567076089559,-0.015685873496102058,0.053888583221163945,0.011758813476846612,0.03357141569689554,0.29107037601589664,0.32947725187102944,-0.024469841595234992,0.14879225871756502,0.05329160958986077,0.14735874909784238,-0.021500662228847642,0.08740042968302232
TLN1,0.021604771964428858,-0.08358872215305396,-0.06498320387443265,-0.009927671964915091,-0.04369638902359123,-0.03233979409523332,-0.06134871624310049,-0.0842733460781704,-0.18272733015695697,-0.08380457401294952,0.0009134393022876749,-0.4003593039816219,0.132306422123648,-0.2566844629526374,0.1250036143719103,-0.06942654438206719,-0.013559498382555537,-0.005927576919445357,-0.2912869553421637,-0.26910309784177605,0.0005178486196347402,-0.14608091768585654,-0.06131577650507247,0.04945340045028377,-0.10094998041626042,-0.026704453015802623
COL2A1,0.05525135297622938,0.07192815013152108,0.10637508315085228,,,,-0.026353650444747183,-0.006292118799391309,0.006202142082442242,,,,,0.010426705290631853,,,,,-0.11982916593205982,-0.18072658530062075,,-0.04037009164552177,,-0.003461319238759724,-0.006370671937224668,
SHH,,,,,,0.0313782213473635,-0.013993411165698934,0.0036873535039861423,-0.00051050689942845,-0.08937726751702789,-0.024524800854626057,,,0.12312654134066994,0.023405071627041273,-0.08760689173970175,,,-0.11925893031904,-0.0980950360362159,-0.007563619157035667,-0.04276629039886064,,0.07533066069715336,-0.0764675739295904,
PON2,-0.04352359478192088,0.04269545595024278,0.18051476528887317,0.041739806875853463,0.18287285280977605,0.012202213884423234,0.12449309649817857,-0.08634130931324674,-0.19782265445947272,-0.027981386847048966,-0.1421375455795868,-0.21196741229097946,0.18266933815884143,-0.18894372206687168,0.12764101763653823,0.10091511383424416,0.06176255811494048,0.07194702904261673,0.0511208977399323,0.1696101613137509,0.09148039062607137,-0.03836519931028936,0.044588104127504836,0.07019733088385528,-0.16829567950534224,0.02019171220387355
ICAM5,,0.28429379045523034,0.04858721935021061,0.062422448158552454,-0.02108857818310564,-0.0022034436436847386,0.12620977694949506,0.023801796483941574,0.14614941120410438,0.0771789323181773,0.0145875753092861,0.34793902512055963,0.03908113178703298,0.2108703562852558,,,,,-0.05479349601787186,0.0336995324386069,,0.03790304295058265,0.05218566259647831,0.055188028537152115,0.1708013201203226,0.18713003784280163
HPX,0.03484609573466856,0.012005621530150279,0.054509220546839064,,-0.02366075451748523,0.017585213074393483,0.07396193593382581,-0.011532893252172612,-0.03642360894186418,-0.0008137233321512392,-0.012187929840483435,,-0.04749223330404402,-0.024876392807284552,0.0702430468030054,0.016895210487562377,0.05814187389090082,0.0387570906845256,-0.05796125588078167,-0.030037495042017564,0.023125138882036333,-0.026786295910162714,,0.07065338404341653,-0.07543177868868794,
SFRP2,,0.08844256142778428,-0.0006963361441958812,,,0.009582015728897412,,-0.11803685905188008,0.009215777376110946,-0.019970968600330777,0.02507874615812097,-0.18566263904422992,0.029767886733462517,-0.04837685521657753,0.051286003449855,-0.01681882396313124,,0.032297829324711466,-0.031735579886735976,0.016046641775845548,0.046033449712927846,-0.14840745034909006,-0.0017918712630552462,0.11894082306622822,-0.06879861767029079,0.0010506307134721617
CFC1,,,,,,,,0.01049396727802646,,0.05637602462535297,,0.18047314725176763,,,,,,,,,,,,,0.05913851619866093,
CD70,,,-0.05344069113698582,,,0.02092239114047228,,,,-0.0554928434350856,,,0.06223401470576438,,,,0.0900782653997025,,-0.2602374488167458,-0.279388677158087,,-0.07550047268675067,,-0.0519849695786383,-0.19006043605127643,
HP,0.015603361777935771,0.0800356178970724,0.06481286774050507,,0.267278102232385,-0.04575342524149633,-0.16263589151313868,,-0.030141437973487253,-0.05286525902916397,-0.004366611252861983,-0.1545266243340531,,-0.05243135588176333,-0.13866864126282552,-0.009701426488617802,-0.08340893127218994,0.07970578018148648,-0.15714753005210455,-0.019419513381542745,0.025257822950454083,-0.1489285390836694,,-0.02003474755116631,0.05579731205833996,
CXCL2,0.024052666825867132,0.02469511472490912,0.05922007558394488,-0.027797916764985366,-0.1177745025376483,0.050345389943567895,-0.08860096038179523,-0.0411384968618612,-0.05167581072566282,-0.05863707866039775,-0.02527737847934512,-0.12125499163607921,0.18730601344435696,0.024588648196306077,-0.0002474049823750468,-0.07240165170622553,0.061189794106259826,,-0.38649846419797074,-0.3484780199263396,0.08643268790196712,-0.17061581401100223,0.015174756588070803,0.021252328362074628,-0.178166353571096,-0.021600283592990644
NPPB,,,-0.03228916364804449,,-0.24119443410858807,-0.01774223907745057,,,,0.002597735612016227,,,,0.0012189932098638462,,,,,-0.048839585384033546,-0.1435384617500364,,0.002440644576654979,,-0.06579097872535221,,
CCK,0.026269098411748223,0.29539253810340016,0.20713448825833256,0.12502064148996794,0.22357253808861538,0.13092082663420798,0.2514292346192951,-0.004702634722037337,0.2215444451886812,0.2769151309197418,0.18444126936225694,0.7253792886692256,,0.43114667054667977,-0.041955572949239545,,,0.0010695022328572157,0.28639112579525483,0.28849869730830985,0.030107922052404434,0.16517081784558924,0.07128405700986831,0.06802734335953438,0.4943454654003737,0.15039865032615155
SEMA6A,0.07763569914465618,-0.019306615234106365,0.14958325351730675,0.04214874039846601,0.22159253211257482,0.07322695734191259,0.16192260078943554,-0.03320280072143463,-0.21518332005661042,0.011978031174015897,-0.025554504117979472,-0.29643567949764726,0.11295665869515546,-0.2943943729163827,-0.10646659267163154,0.01268541189969325,-0.015363088214706071,0.004048548566931086,0.19133743669584677,0.2823213363684042,0.03273925923017292,0.12079748592234,-0.017032808739664198,0.046339467199082406,-0.14735977356106408,-0.11511615717299747
IRAK4,0.04828345841778819,-0.0649002717216982,0.03994651114043345,-0.01796057883800923,0.06440133187342113,-0.0026271287163512473,-0.021323171540850047,-0.04912066124418647,-0.11275969423514312,0.009440430702049477,-0.01751963295366679,-0.09687165912131504,0.0854527094974422,-0.09012672091624073,0.009477408017454015,-0.03603840612884483,0.11356248436705127,0.011729883536915234,0.012353598650640178,0.06839528925520719,0.030907015825754083,-0.07605977647915564,-0.09441813748439067,0.1485359935375464,-0.09682301553856601,-0.06462311616076913
GSTP1,-0.028540966815977075,0.0036399451763743863,0.01751030088922433,-0.03979282733690329,0.08885637874810857,-0.047389132468459785,-0.007299063487950478,-0.10001633991773037,-0.19622787765068864,0.006386053064079298,-0.1073777710614426,-0.5567543785965212,0.006228408467755492,-0.23239719370262577,-0.1268123399635966,0.029291226581437246,0.007293967984192186,-0.004082223215488267,0.04693307102066917,0.11923543690703599,-0.04647529482457522,0.06023541447401454,-0.015102606626052709,0.058577532154380337,-0.20849938938604506,-0.10633836918807475
VCAM1,-0.037457800410582366,-0.05704025829564087,0.04858446187252771,-0.013075994667066056,-0.03215005940190965,-0.02535017727492408,-0.20487507239940272,-0.0825319305114349,-0.1402303630556471,0.1400923019047404,-0.06561789391407448,-0.19864464725903966,-0.097319614046295,-0.08708182980813349,0.12370884186363025,-0.0877914233782235,-0.03209377931792163,0.0578817129620266,-0.20687573830959732,-0.2821031247143034,0.05914861953376588,-0.0734417413549767,-0.0033989101230012,0.16752600535765771,-0.13409232985160047,0.017923458344477013
NXPH3,0.04412136134286025,-0.10998746510503044,-0.008549412758894006,0.011183904085913687,0.03340897466131671,-0.011200967429752183,0.0022807366888428883,0.029506202285426407,-0.015119618820493652,0.08020479567464735,0.01441257078943146,0.23077972158329607,0.10795802386780701,0.020509119873187855,0.07535184773793319,-0.01883201680945073,0.018882118355467617,0.06003085130057684,0.06844019635867232,0.09387991050807096,-0.07635747835334279,0.0333304357452176,0.06543276861851054,0.11971666478418208,0.0039055403727296114,0.09715565868228192
MTMR4,0.08711220945485311,0.05120536910899977,0.057745499487254624,-0.01173979135949161,0.1411370498586307,0.05432208776761341,0.09479796665695743,0.07372646085882537,0.047093488388254126,0.007363110702885922,0.06913778965973243,0.15268914427479316,0.12435199332409189,0.06138619588909728,0.06608542222866769,0.06261651604279772,0.07641094916463882,0.01443090496477681,0.05180409862414728,0.05514116532349488,0.01611906617412353,0.04700535418631105,0.03243471252300149,0.14414401106860836,0.10251345144873196,0.08939267533612301
LAMC2,,-0.038205806324044446,-0.008002321749186045,,,-0.0799126662535555,,0.062176148830266446,,-0.03362699018535283,,,-0.010515841030494877,,,,-0.0576133489843629,,0.02238990097876965,0.0016839786736178102,0.00704987601167481,-0.0028929151712520514,,0.05107451644515817,0.014222382616128768,
IL10,0.06656005736341145,-0.06630309290628639,-0.025510816535675135,-0.02169186320834544,-0.011405044940365828,0.025338919875134994,-0.14004201340324923,,0.019620122280567052,-0.03991477871203101,,-0.20599446352765619,0.10222268869869018,-0.038716295238693854,-0.01839137958978135,-0.05132272803770125,-0.0684835903657425,-0.041740525366669445,0.003631810971970238,0.04273124797141051,0.00583744688985825,-0.02188602408057274,,0.01746738849901696,-0.16775805950187572,
SEMA4D,0.05323666543527644,0.1852168929665161,0.04121218844932371,0.05714277830126233,0.24367928795100469,-0.00804462112441024,0.08387005568013585,0.07427745277345307,-0.04511876003720283,0.09839345498081963,0.012829795767583672,-0.28116075532769513,0.05683524458218381,0.06784815286113861,0.1033289779563679,0.021510471598220643,-0.06175409960790709,-0.027898776771473194,0.3188460761864451,0.3499449960549308,-0.03899695484408496,0.12883446095239875,-0.0344953363045514,0.10720270216029527,0.12759628534460832,-0.06556989799633532
TRH,0.09007646353159227,-0.04986296430061529,-0.013931730483742267,,-0.04681482582848395,0.020637940812513623,0.06874987510047328,-0.05847769972263025,-0.023427816218181515,-0.11683692816615315,,0.11226702562033855,,-0.06674981778196847,0.1216407390422442,-0.007218499240794435,,,0.190344428680305,0.18817486772563882,0.021545251864860743,0.013670553612705331,-0.011900382615454145,0.035820407784745045,-0.03146880489819905,
SEMA6D,-0.010821372103085869,0.036981219322559926,0.1388765918510005,0.02566892795925116,0.29651658647529366,-0.0027542143424647064,0.15004378135441834,-0.0018055376850174226,-0.033207650584310834,-0.0460105875279177,0.011934157527102997,0.028261255327052853,0.0028049677408355515,-0.12816188271280357,-0.08518431497665634,0.04626485999699017,0.05390595275720906,0.12288898685963728,0.034985692434378206,0.11346543247806773,0.06288757842678286,0.1281506986332646,-0.11127613847944058,0.009055651169711059,-0.13756109235545594,0.04154513995106835
CEL,,,,,-0.004553328738702425,,0.023291072374965416,,,,,,,,,-0.03166616669229869,0.04953288109009842,0.021887951531912753,-0.021992129905465434,0.05576538286310866,-0.010764650580228009,0.0023948091817996087,,0.10678095336241274,-0.00048812726592092556,
PDCD1LG2,0.0490154546583879,-0.03224424179474813,0.0034411890764596146,0.01001542912117444,0.02020762023739083,-0.02524811317510042,-0.038223699814738256,-0.012464286348509436,-0.061902076982512204,0.04077689176569824,0.011049783296381871,-0.05429719389899869,0.03256093739117639,-0.09557279255487287,0.0695494130322563,-0.0540932485677561,0.002344015618736233,0.07474359953966225,-0.018863804923637466,-0.01843801975326157,0.0672354900894187,-0.06608926183719839,,0.099286250449779,-0.0775333965412602,
SPINT1,0.004986964036704585,-0.03355993465746748,-0.04101931963931746,0.006771034367936807,-0.027709600884234777,0.011462258426529178,0.00890098601155837,0.017956699615999567,-0.08535257000739731,0.04544048995157629,-0.06428768780455696,-0.045756464439118655,0.0052952604204572085,0.00917040900441739,0.0035040939398618717,-0.01916643557786761,0.033741730592445646,-0.02208791471204437,0.10472754197885427,0.05380914021583139,-0.00500085888730328,0.022467716769515488,,0.11245892380828056,-0.06452875325711996,
CTHRC1,0.060351756541631454,0.03631076063630518,-0.08928376975619669,-0.0232756664962374,0.051163895022790895,-0.015543145489420991,-0.0372863002010951,-0.030904321063070436,-0.12294649094463976,-0.01803597144414126,-0.029642681661975496,-0.09384769885189889,-0.04410884209695019,-0.07019463116047032,0.09209106180279304,0.022094145653205905,-0.01769399384403552,-0.013012970041188319,-0.049769761340725506,-0.1058845935046191,-0.008120575458711367,-0.07606288679164723,,0.09685994442414256,0.06736761741730275,0.02423413059818372
PODXL,-0.013215392634555677,0.03164472574677791,-0.011435769674782463,0.013400498529397975,0.22817666360333225,0.01934539963980811,-0.09270026574567278,-0.044541407800195096,-0.1474768294727667,-0.04755530212196234,-0.00426181741352722,0.12909308888694934,0.17046755643062012,-0.014609130763371643,0.14003129623592303,0.014341299330826791,0.04002712345834017,0.03734906359056908,-0.08085970108245705,0.00010439352335579555,0.06539747731351866,-0.007619295559682685,-0.05545060685006526,0.04710050312644248,-0.051317249244820395,0.07857365917880942
JAM3,0.03633071785141444,-0.04100764467120272,0.05183703673838885,-0.004288599412016942,-0.02503307667685825,0.03853420191135625,0.0066671339918372334,-0.013949348820302116,-0.18919284894095337,-0.10333914233695693,-0.042698735720637794,-0.45493222674185985,0.0846671262010771,-0.17827331628432314,-0.02990031085178105,-0.03052704010710237,-0.029968351531755536,-0.04226860013185036,-0.15171991753689457,-0.13538079144442208,0.06934741878404742,-0.057983680701122975,0.009797299206228858,-0.04880596278896635,0.05113449105581941,-0.2051789294022287
TGFB2,0.0767260932947854,0.011325477715537208,-0.05856945978436941,0.004706331794449207,0.027180887987314085,0.11638340578525957,0.015317136544919925,0.0023201200490765503,-0.15675605039076407,0.0007914260829365937,-0.08867509683839372,-0.05128995034371315,0.08234050530309561,-0.06820331354866425,0.08916109773888328,0.06966132872276473,-0.14136879735344124,0.06711071607682155,0.20110165260774324,0.1940428350027663,0.09546189467945539,0.05785316986618152,-0.006319095894185424,0.06231027943939997,-0.1349006706986977,0.09668711448702731
COL18A1,-0.05647745733838323,0.036998079255595735,-0.06778178214132145,-0.04856422613273007,0.26147527065320253,-0.008413170533692888,0.030311918099932528,-0.055990300334869174,-0.13208064318921012,-0.13973592960898845,-0.07604438732297711,-0.2968305984146599,0.19016617855996662,-0.030378779840469612,0.2048346659946422,0.0103155624137989,-0.012640113472208262,0.15198515285333392,-0.17714036749434095,-0.3837786209159061,0.03575581300925364,-0.2576273945562162,0.05006814259647396,0.021456731072795287,0.06578843452551016,0.06331162297204855
NODAL,0.022577499865679914,,-0.060449359910980584,-0.006736454971133277,,0.0184067581666506,0.03481516316325836,-0.035236750512457955,-0.03339630263849614,,,,,0.04138186873376135,0.10091912967534433,0.038438162764699385,0.04425541201912029,0.12116316693138103,0.0679658207005475,0.026139719122456554,0.05627365965237203,0.013394073541726855,,0.04364967662689951,0.14289865746221653,
INHBB,-0.010362355989673628,-0.07262796184462852,0.025738462622713627,-0.033523270732355864,0.06460034573359745,0.01418173351734552,-0.03476083701537013,0.02276540549155579,-0.07008777221028085,0.013163895930583692,-0.03172088821523017,-0.0490177869309073,0.18216331221247897,-0.09792176820712689,0.08203618767027611,-0.0527829269234159,0.002718217883190078,0.03657063960066,-0.16052528841725303,-0.2164221873561719,0.06493609842829356,-0.16472384074033133,0.04963698913305818,0.07569378104044353,-0.058255574535911646,-0.02593238660936111
LCN1,,,-0.0351302323426403,,,,,,0.06215751773471288,,,,,,0.01165459317129937,,,,-0.018728618834714866,0.04919023876140184,,,,0.04881696753423937,-0.01626833997575324,
ARF4,0.047225327237744336,-0.062845922953836,-0.0816743071036197,-0.011317264533151242,-0.25093347107329295,0.003568158572553048,-0.11759277805922946,-0.05412797790432962,-0.08527897075902774,-0.08372897974384098,-0.05433676733469805,-0.09045263103549131,0.1499029364594404,-0.1675060315684083,0.02722642084503142,0.010462507370879013,0.011833405381083809,-0.06885328618059838,0.15287387572808983,0.18792924213065573,-0.030376988110989444,0.060396655586464225,0.03654491585091987,-0.005121234114476465,-0.12721198333413558,-0.0009616131043966066
CXCL14,0.05474077391580392,0.16868328357316256,-0.052176395865540764,-0.016868252599121242,0.021595554487177673,-0.009435188723252146,0.06518052302698842,-0.01648628177064766,0.03560008152860257,-0.15127634461468376,-0.04884758572168425,0.15052111484478006,-0.02709103336991352,0.21717212765209665,0.18843820572677847,-0.04485725477132254,-0.02756921142588367,0.02394785626842164,-0.15742256166018614,-0.1893545351685342,0.11472951033046397,-0.19877986889135155,-0.035804339674317294,-0.001111840536727291,-0.08863469238648318,0.20029650603120214
LIF,0.09986347541740428,-0.03574119836426558,-0.07943779706347445,0.04389677741060801,-0.2185197530551109,-0.02565082079751042,-0.17051821218730157,0.05958488611279793,-0.0927228386163659,-0.1464790031268173,0.0526890351193957,-0.09929339258558982,0.09896055480630991,-0.06785681096671455,0.009468362962416993,0.037971761200474755,0.05670240743321777,-0.05423987554447168,-0.18170874606306436,-0.21215760439811138,0.032529084631668724,-0.05388119003295438,0.0034705768587987903,0.046627476755872005,-0.29703009696112226,
IL17B,,0.02764543625246433,,,-0.07914300479048224,,,,-0.08335792140280249,,,,0.07789930144101526,,-0.0680370848161017,-0.005164211714949616,0.07476411687782301,,-0.014757221315934125,-0.04632808334080208,,-0.07299199929112771,,0.08722071834153326,0.0514679426868129,
MMP1,,,-0.047077129973361255,,-0.1694080138240442,,0.040585310756342696,,,,,,-0.18172473607415368,,0.0002150911015198292,0.016794941803988505,,,-0.13427358669652742,-0.17810345111274073,,-0.04459995728766581,,0.11191991284761633,-0.03824447864458319,
MATN1,,0.05065915201174013,0.04352977177775528,,-0.0943590380982968,,,0.040675633735087424,0.033851524082199456,0.035968966263314826,,,0.012694349187918355,-0.008903611601451882,,,-0.0512565211611483,,-0.014779309081104162,-0.045029301647925936,-0.000169093991601139,0.03741968186390263,,0.04939252276373562,-0.04199467851338953,
ADAM28,0.07852586682047771,0.015538450583981182,0.013937984542638237,-0.014948721122534885,0.05299876214255827,0.07535973924266055,-0.07787448427816693,-0.03213086202436028,-0.09721019078752478,0.03394802139954049,0.022142657637049677,-0.28505621701043576,0.021168349435563092,-0.039598043182131344,-0.01256396904442181,0.14373920474346172,0.011894006714878783,0.006562302130817478,0.0356846767961728,0.0462089736213835,0.03476373541583834,-0.004984083601346956,-0.041125643279128606,0.1301480413790845,0.03697950482714678,0.00461363243012118
TCN2,0.04746504768684446,-0.08017563215476159,-0.03429490266734807,0.05411786256943032,0.016440975923901043,-0.021584819146287678,0.09875055699313025,-0.029969840569155904,-0.11251311327039909,0.012207792953532727,0.0015143275391343687,-0.20087599815067997,0.005561930037053573,0.08737993014299925,-0.0742825690115959,0.10141157091876755,-0.016532326335577174,-0.04388091332338385,-0.005040189390778161,0.01768125854405972,-0.001561790409916391,-0.10113466934874253,-0.06080180890268969,0.1329256973558848,-0.08183283584076921,0.021338906240043618
THPO,,,0.08740685868205288,,,0.03269002460653758,,0.049663223496246675,-0.02610628172477991,0.017142605022681792,0.07514630850064519,0.03156495816678167,,0.05259675268251946,,0.06135681285894977,-0.018934666282061037,0.05117184512455018,,,,0.005869196788593628,,0.04179168955560604,-0.028574709619433262,
CUBN,-0.012687709431972272,-0.03446973649125075,-0.04603939585027243,-0.0022838546179142103,0.04143759303129863,0.017552991544085426,0.05100790381330449,0.019810096495139217,-0.05485669631817356,0.044062926954241965,-0.008053225207558185,-0.08733514727038956,0.13552408156533297,-0.05491220011267877,0.029840309391744962,0.0003857684264354208,-0.012802312189440508,0.019523909061369953,0.008688432809364401,0.04995241263496908,-0.03803345508021874,-0.027928374431698256,0.00851533272116997,0.08291406497780998,-0.08068556075134499,
TIMP3,-0.022056398907622767,-0.1370572464403216,0.036295506812071235,-0.022372949219509143,-0.02838688770318337,0.03486718421948149,0.11442889840837331,0.013516298897452822,-0.11443354207701072,0.06529387416965723,-0.043245292203529635,0.11498681871122146,-0.05513226639890133,-0.005849338092310361,0.09022657489642906,-0.03535439257458953,-0.05533230434334737,-0.06902726639921715,-0.05865986856208277,-0.20614658170683575,0.1043532952791629,-0.2418949910171067,0.05003126984199233,0.05533912396820327,-0.021172578689826787,-0.025782082746269794
PIGF,0.032658806818603905,-0.027497246706571093,0.07400140704533377,0.002677808704132011,0.16196729449969816,0.046565786003474816,0.10169173434890819,-0.007063565758146182,-0.15016634850725383,0.02215945070206615,-0.015445340099839474,-0.022676595589161647,0.10440771881167567,-0.047496440906553014,-0.07984473129249155,0.05711265870646463,0.07308333395479683,-0.033106504031610286,0.17807596038031087,0.18914725250038142,0.006130483435974968,-0.00457568575829415,0.06678879761872626,0.1304283516540907,-0.06087271700452914,-0.03479619989896205
CRH,,,-0.03805224899395735,0.089055045337238,,-0.03948626695544455,0.0204402237092612,0.05430313463048787,0.12248662490414454,0.08634371303012253,0.0029213449627853785,0.14659757662164233,,0.06799668743375115,,,,,0.00551955526409609,0.04244561001825693,0.008772740718972912,-0.011824190397943914,0.050139862814943745,0.02917125904818116,-0.05166929667128655,0.0934737720104915
BDNF,,0.15003552569743298,0.005325525062468393,0.0104736043566903,0.121043222113904,0.021681931633380908,-0.039128210641607715,-0.03459437368627301,0.23427575261696582,-0.06984441474772886,0.02502496297034161,0.12600039585424908,-0.0016176376696986935,0.09594117820627285,0.031848255216079036,-0.0650629898878436,,,-0.058257447881312645,-0.02825281974511197,-0.016309522642802932,-4.197534368538597e-05,0.09267363542783934,0.07463590770281459,-0.231646566827286,0.13896188200184698
CCL5,0.09058126873403394,-0.08417340559318075,-0.021223271721171107,0.008384295127277121,,-0.07548239860509628,-0.10046444894840972,-0.08519746133176716,-0.07567586484950171,-0.0211285367871779,-0.032637662209175224,-0.14921254349601454,0.06635669543308881,0.03367666069460202,0.08600471194675366,0.17571571776040168,-0.08515584897122047,-0.0525545228492306,-0.1020618096658612,-0.1045881263350322,0.010480872301598276,-0.0713018849505096,0.008413541430503406,0.14613686402671913,0.0073373281965157695,
GAD1,0.016760306394345635,0.19754813732933355,0.14454375301052927,0.058489948757292846,0.07630462429321792,0.07218676181924483,0.17725426134609387,0.05190943191180676,0.24334990998660752,0.20099822059251377,0.130342704150612,0.5704915354393977,0.009008800471228009,0.3918509437213408,-0.058876697423549486,0.08806020994511933,-0.0672653948085059,0.06575082701667857,0.11600837251023953,0.13681047126839344,-0.004494436644301673,0.07989572238263476,-0.02427208224462058,0.06623837996405649,0.2587255269084704,0.21294482519806227
COL14A1,-0.029820697869468116,-0.059761465800960326,-0.11095975796092979,0.05512468335200355,0.04388659759543426,-0.009314368164620213,-0.13665286226259094,-0.017030430519584056,-0.05615643084470435,0.004165094046288425,-0.030329038224031206,-0.14327131704294016,0.02222234646611905,-0.06076809030043309,0.1962912394914669,0.04059597671030751,0.06990538714828516,0.0037929905749522342,-0.23222479742897756,-0.24427074736466597,0.013787005304589713,-0.2569156280821494,,0.12811400667036976,-0.17500061457596236,
HLA-A,-0.09921010880653144,-0.12256783583125028,-0.08959004555934773,0.02106197804980896,-0.06406766123952061,-0.02593910072761391,-0.24926450943189893,-0.09167381705878101,-0.21311367113674407,-0.11135155309443617,-0.08782200315802592,-0.6129527595843614,-0.09811051527567097,-0.30542055879028723,-0.013256331645930573,0.10114828338262702,-0.010978124538076058,-0.008652140761141337,-0.5700980925546557,-0.5312211995791776,0.10121522475232791,-0.25298649286643443,-0.03418509091241392,0.03936114733714219,0.06536056784368573,0.02650080510026447
CD5L,0.06435401899480415,,0.05852015348392451,0.02309739430303652,,,,,,,,-0.011094763489943501,,,,,,-0.03413420889164272,,,,,,,,
FGF18,,,-0.043210069196484846,,-0.026343641737059137,-0.0055393780111942775,-0.00658219934593904,0.03957760426482685,,-0.049038310930632024,,,-0.06931702549224353,,,,,,-0.12841887066394475,0.0028650419470108122,,0.04954146474302714,,0.0017252919120549753,-0.03019276837430494,
ADM,0.004802877455377026,-0.2012017154026164,-0.15324943218121415,-0.001830334966984835,-0.33253335103089693,-0.06227146700007903,-0.3362625380906818,-0.009480618670160285,-0.07258967780426857,-0.23472746155365748,-0.04228401117141645,-0.1154117532071998,-0.17413214658076784,-0.21698370065460862,0.014635892557284674,-0.1466318046577947,-0.021615683492134004,0.0033207767397536725,-0.4254320508019409,-0.42773436723649316,0.11016542702099645,-0.07599111013554392,0.05399007211987554,0.06711340424287025,-0.3984357857707463,0.033443189625548576
CCL15,,,-0.06019135218261277,,,,,,,,-0.06067507734401493,,,,0.0060516488358955175,,,,,,,,,-0.006351274324081123,,
GNAI2,-0.030932587764657588,-0.028173176121200006,-0.09922223347330231,0.053040422389678384,-0.021489704122753642,-0.03149796303557049,-0.0526252168417197,-0.08262038247774797,-0.24263863696813262,-0.07583424983444692,-0.013083919166269713,-0.4793869664623182,-0.007288212483975798,-0.21376296761050953,0.21691666961248127,0.06365607088503202,0.09072969371893676,0.15046106515236135,0.049090314667264705,-0.0685230836654855,-0.016936538605977065,-0.15291602961967984,-0.015798203152961005,0.13265390251902873,-0.017344140622625126,-0.0782762641497071
HDC,,,,,,,,,-0.0010663543317011512,,0.02358052282820375,,,,,,0.005964428660873888,,,,,,,0.07399513077720607,-0.11411818622453919,
COL11A1,0.028048155742435476,,-0.059979010252378555,0.015486551905515608,0.07608118850863674,-0.017251123574031163,0.0771439138353157,-0.04768944310219376,0.06794226440704845,-0.023113883810133868,-0.04394094877328446,0.0928444650562239,-0.02731978111812603,-0.0366649401222165,0.08130523962118594,-0.065159949973672,,0.07612759223492209,-0.053525151381960706,-0.15766148632473811,-0.003623467244242021,-0.17536693931992237,,0.10173096398694231,-0.23470869794557644,-0.04658558580803541
NUCB2,0.04296672621635797,0.02007429848185227,-0.02793738168383893,0.010327879951031368,-0.10620267036693722,-0.06294736488550563,-0.10210643651886721,-0.02302310817231961,-0.029588736415545654,0.053787068469432806,0.04550800988859597,0.08127492604305718,0.05497845515682027,0.0069383529280832345,0.06618807300796879,-0.0011247489327645176,-0.0470594572715056,0.015453833387676362,-0.1062002279000662,-0.08055671446397335,0.01901741016786844,-0.1323194786272629,0.050396278584222694,0.12261419331260441,0.05844287804181778,-0.09970731540472881
FGF16,,,,,,,,,,,,,,,,,,,,,,,,,-0.0013477841902290585,
CXCL1,,-0.015544697714412846,0.030395222117159927,0.02075939546823121,-0.06534153980987384,0.015663319125849857,-0.06483905126631281,,-0.02632503253061411,-0.014268434332082903,-0.0558340307304916,-0.11916664530377821,0.2109990909088539,-0.018580296424234605,0.001037490327152743,0.0034037830103725566,-0.0445165461832562,,-0.33430339194909087,-0.34806567952941025,0.0506151884512824,-0.1056177204770854,0.025174671068347247,0.061814065635766795,-0.08891232547503246,0.01794852632376455
VCAN,0.023250574620718067,-0.030055932376027217,0.11975939411765536,-0.01998178291298529,0.3675185057257781,-0.01705292780598834,0.1836514363718712,-0.07595573290526123,-0.2056626155763651,0.030519142613333522,0.04286158424768946,-0.1247898905201258,0.12841707028903937,-0.3062288414285526,0.13184366859952804,0.02647235382797888,0.024799459784207098,0.10412499535629967,0.44938030165668996,0.3433825912850359,0.0010390295437958054,0.06287948136481979,0.025467064270650635,0.015649715853655422,-0.07779043670686112,-0.17369045895980473
MMP7,,-0.029052563840112202,-0.09177922713106151,,,-0.06695277417612522,,0.010290502653006602,-0.03223245930774128,0.0014623194205777078,-0.023893743232977334,-0.10923158317624455,-0.006565712578415672,-0.029113007780380524,-0.0012475145435860025,0.02161909773535585,,,-0.39254513096436355,-0.3845988101141784,,-0.20330273946356653,,-0.0005111805904468906,-0.05346004194275055,
PTPN6,0.07142006242125709,0.08987113475084332,-0.037654264179238624,0.0014341257906817996,0.14450230518386692,0.02183314075392986,-0.07058203682195958,-0.01860919253611219,-0.14236066711603296,-0.00302558550069578,-0.01721784468205538,-0.17668314837607677,0.09652690585653044,-0.0465777734872597,-0.0004285551155164262,-0.006959755003169068,0.047117986451863485,0.029222799545649,-0.06436419753051056,0.006151393789867005,0.011849426483198769,-0.07766774263508065,0.070455788368632,0.04464265432746106,-0.022903706888103007,0.006780338147141501
PTGS2,-0.041105836746255196,-0.015739680386360925,-0.0712650505203606,0.040694017159025965,-0.21738117319820383,0.006220294946461823,-0.17784216155179908,-0.08774714578295233,0.20969223236291729,-0.06391676191551983,0.015606874146280357,0.015583167250868411,-0.024302176249361894,0.02110555587191575,-0.01801298944899693,-0.051914725682367754,0.013033643361227585,-0.0428495365716244,-0.39900908255216716,-0.4368080911533364,0.015373890167462295,-0.1180781764101614,0.045300408324650904,0.039407734996973066,-0.16866205923833158,0.05124267848251942
XCL1,-0.010239641043843149,,0.02173411077944891,,,-0.025896512818056276,-0.045657989440128464,,,-0.0369723700013265,,-0.009905683536963578,0.03216891191613211,,,,,,,,,,,,-0.002085916753077258,
CD58,0.05913842997567576,0.03523929537128092,0.017937916445810862,-0.011875189349418511,0.1366405654831918,0.038897532428973924,-0.003053793196455632,-0.02333747709674019,-0.12533165328879686,-0.07225140192375573,-0.03739554058607484,-0.04885994396960248,0.2139673458554167,-0.12565318031182932,0.012944682916658153,0.01333206616139876,-0.0028592255540846744,0.07437934707625778,-0.04889673892699624,0.029753087710751372,0.07060414981128477,-0.07848431880040906,0.01177284865755138,0.1026270925802042,-0.20255318861659866,-0.017577572758070027
TNFSF14,0.04397396901885786,0.0026452802799891532,-0.017999550339779496,0.07235568633572434,-0.060506993673607186,0.02801379786968802,-0.06841416161975797,,-0.03871191899760501,0.037405710366762795,-0.04325092570409772,-0.195999735470592,,,0.1068497851545435,0.13182718891306014,,0.026602207329527394,-0.08005572958625562,-0.04088316957053156,-0.01676236807626004,0.06346058585135071,0.11900513878067198,0.012973395228595605,0.06467180566046407,-0.04188460373722569
CNTN4,,0.1998576325646421,0.011759187237124671,-0.01199994423741338,0.03477737249828331,0.05646372516642982,0.16371354512814035,0.02014101379725907,0.1464523090691328,0.06530348261878281,-0.006001298990569861,0.4276535599050561,,0.18606994609963012,0.02437657218575839,,,0.05115721826376339,0.13260523651907347,0.10160520636074911,0.010222973934205128,0.008889339668677759,0.0023566641892658635,0.009445728750969903,0.15807030307115885,0.14797185340076996
NTF4,,,,,,-0.023649976333720773,,,,,,,,,,,,,,,,,,,,
INSL3,,,0.01878889422300642,,,0.036175174290558235,,,,-0.002051271169791459,,,,,,,,,0.060815230792426865,0.05229639845966965,,-0.02191740858440835,,0.05801930268918869,,
BTLA,,,,,,-0.036515328703501826,0.03317532209431028,,,,-0.05203808392442096,,,,,,,0.009304969179811171,,,,,,0.05062480625489113,,
MFNG,-0.0007694571586199511,0.03642021501073618,0.011865417405140894,-0.008229686482070916,0.10605440174094362,0.011199874090111452,0.04856412386355405,0.033318205508440966,-0.08864520757869944,0.01694940590743118,0.0113095251139343,-0.11165570712130578,0.1260736040050865,0.04872020488129373,0.003332918320696173,0.03372706927261685,0.03063214474871264,0.0056817181121069414,0.1496883969864826,0.16583936313053432,0.0448620292675829,-0.0006212444783516359,-0.05442417798566397,0.03863363743980442,0.04591359780328671,-0.03864566085997379
ICAM1,0.057995731927982276,-0.13772458831760231,-0.12082376517827285,0.0221920656174555,-0.19168804835571535,-0.019587228159892285,-0.25146530013522606,-0.07762391741790674,-0.1801915349161605,-0.07795073810031711,0.04294945319196852,-0.1740851567520326,0.017008251067769518,-0.03544218621048086,0.06443499027709042,0.05374980594951856,-0.06182164383792994,-0.05272925535473011,-0.31337647628016,-0.34780409203787127,0.022662231095847495,-0.0879166487682392,0.07980562758429048,0.026290646138280842,-0.13624468136621154,0.015637358292988346
PROS1,0.08374309210219054,-0.11690109699255624,-0.043566580584811214,-0.04229260124621834,-0.05500041136045563,-0.0666993613837326,-0.22840742718535526,-0.02708330323037929,-0.14210301651548102,-0.10463693138182331,-0.05517222607161114,-0.1499702685371471,0.0997968684652817,0.026292706300911763,0.04776924162514189,-0.06947622040075561,-0.005084152742951493,0.05600959356928962,-0.17390376450627598,-0.23876185158810884,0.07013646247219144,-0.2667561497824875,0.004851903992344599,0.01305863400297122,-0.14239748614122127,0.06659750217922349
CLCF1,0.04416974191082528,-0.02460244446636949,-0.09571419448648978,-0.0018248392484438026,-0.10512991550652559,0.026460271562610178,-0.2183445888407616,-0.010272415671470827,-0.02175545516972483,-0.11279621676512645,-0.02147188134096522,-0.16476326778670083,0.06163143657392498,-0.020016843930522138,-0.0034998806060903163,-0.029272800825274628,-0.05255991279509478,0.020644795640468488,-0.1753221708970493,-0.10634211853451721,0.08465787288862334,-0.1349304433127469,0.11764136474258453,-0.0026897169048562598,-0.23078938012366312,
PSAP,0.018962613108205205,0.14214448752701114,-0.08798612174006902,-0.012758479570722993,0.0716028378971025,-0.04290631970828203,-0.2042514974107564,0.06441745186721479,0.034114692236881114,0.17431973978963916,0.0660516045565525,-0.23080847508843383,-0.04601280087212089,0.3076610380268124,0.16792200035945876,0.1183834277089549,0.08665890661778215,-0.11310285484481915,-0.37013611298085025,-0.39861929199341845,0.0417779940679185,-0.20499247982845384,0.048619273741408155,0.05263243418204498,0.3014211056574864,-0.08266835017240459
EFEMP1,0.11690767903841295,-0.17516947336561906,-0.11020181500147012,-0.09990358615390031,-0.04773600842082365,-0.0019500192558088265,-0.34936967677908004,-0.021453543050975386,-0.17053761476590687,0.11087383600117362,-0.1288728779993885,-0.4858499289296644,0.013051508321546692,-0.17689636659107727,0.17310939249077117,-0.021529797474590606,0.052955311767650795,0.0059842621947531,-0.09751413684680611,-0.010552151363245643,0.029590706251475744,-0.24206924627942794,-0.04210515955570509,-0.05395572056307436,-0.27390657672913826,-0.06363074510123198
C1QTNF1,0.0009356489097163969,-0.2390450926461428,-0.0021487717495082695,-0.0058984473567629675,-0.09958449514807396,-0.020810732655576432,0.015912203749639534,-0.0022422424876360056,-0.10250000336535976,-0.08614667218358782,0.04880520791587577,0.06029854078999789,0.022171957357063243,-0.1117621049003292,0.034645021813754326,0.07679764019625704,0.14891556368834863,-0.01766971071376444,-0.36464258032911573,-0.36486786794452564,0.1274618335924124,-0.07100985855782259,-0.00986104277872193,-0.03315668865214659,-0.2409753961696911,0.000783110881349676
ALB,0.03903434173948533,0.06613100633079004,-0.009666658461180908,0.03950064989650385,,0.031293084462317544,-0.008039336489840399,-0.04958664333306424,-0.04048259843272072,-0.01570865076469697,0.012643912395112191,-0.20492277620744145,0.048407657472554114,-0.01410688825817934,0.03165743129622116,0.08596585602721885,0.12852759956685983,0.09532857210858466,-0.013892742438194659,-0.046659123029149804,0.03801739052222195,-0.018582337820497778,-0.009239127399211707,0.03410009653432518,-0.11165136485557922,-0.02195918143759317
CCL13,,,,,,,,,,,,,0.08824136217139586,,,,,,-0.1370786675434517,,,-0.08428584029542147,,,,
EFNA3,0.021439099489483502,0.09830763298165515,0.05897008834652503,0.010837487049673794,0.031246146298458823,0.10276790109698279,-0.016614596198493467,0.07207391022002413,0.25506293475912617,0.02631937468443905,0.08474456778647219,0.35977306851161145,-0.053179927603942696,0.06936861717070876,-0.01839388941079224,0.08632817513546302,0.06089655943363489,0.031037907804859925,-0.014211037472997144,-0.030006698048520932,0.010894397984224206,0.09191652419067765,0.1350316530089474,0.09643941884740138,0.164942592577418,0.12478998509869021
DRAXIN,0.006534253364447058,0.1251444776151749,0.03939340396985688,0.027054976931720865,-0.11921998722431527,0.045333444998668516,0.009525630323475583,-0.011117449527659405,-0.09051621355026798,-0.17754279140415122,0.05394955403471823,0.0027729520799105708,0.05906118241958248,-0.11945344194485631,0.07755807385813099,0.07134381710905795,-0.04718780129102425,0.031038232980753675,-0.17763935066180153,-0.20050746290706672,0.011912155758774941,0.0809377302513094,-0.033035586766195744,0.14716941865382385,0.10698557534827113,0.09904370524084895
RAET1L,,,-0.009145964489380537,,,,,,,,0.020377531226553208,,,,,,,,,0.029552517903136708,,0.024620330342381983,,,,
NPTX2,0.09682501869789964,0.19062690923291456,0.12406070106924032,0.05766907239605791,0.16265080808185003,0.07503089396167936,0.14099536638826463,0.05785603508257463,0.2061892954143658,0.22786321445738164,0.022951025123848372,-0.271048758172611,0.10157684651012598,-0.05185443319857453,-0.14061524842398612,0.06702121170685515,,0.06369568738197583,-0.06633831116342497,-0.08320153611068526,0.0023665129127538338,-0.15267926896154135,0.02301247342716814,0.08352390164516076,0.1368145163674178,-0.005424758336040644
FGF11,0.012431337782453995,-0.10110537754091076,0.057615373694688464,-0.0014336233493777752,-0.18618299965832755,-0.08247490040008353,-0.07550230510077881,-0.01977381819038736,-0.10683294737273866,-0.04698959443304345,0.02622063092264503,0.056938347051059025,-0.021271296670132896,-0.10006688894675105,-0.025145735238451705,-0.1313364881438132,-0.013267958643122428,0.03695884362837276,-0.09727748669750673,-0.10831679307876645,0.015208073956005302,-0.02488455233013754,-0.0053592551266695146,0.05952444626093364,-0.21827768907872133,0.0249312560072664
CD59,0.014437832874245668,0.05661662907874948,-0.08021371267794787,0.0008637975747114902,0.0025289624748555165,-0.03465614201007759,0.06783478743236178,0.04032555302348668,0.06053384729061851,0.10790058494846007,-0.02250649683284115,-0.18922115959231714,0.07023962876046215,0.20044295037522683,0.14702283264218008,0.012577145599508907,-0.05387413566497442,0.03770092835431334,-0.24010034970026112,-0.19760527747641923,0.04616393628700644,-0.233746354569087,-0.016864945381870805,0.08888752264958782,0.27471135800937724,-0.005649753840178575
COL9A2,0.06360512951944118,-0.03080481881328172,0.05636233942898135,0.015450994525674312,0.13440197742365526,0.0831386841412545,0.20271577870884772,-0.033133994258108965,-0.0785190152805589,0.13013628758143853,-0.07626082529293025,-0.2628050304416031,0.16785720177446295,-0.08169276440983018,-0.040749338635538555,0.01968649816302755,0.046333952548984744,-0.02977115684455908,0.3087002644490481,0.3623055277934612,-0.028569829091830173,0.15485205665708288,0.031232882387989148,0.09802102031007859,-0.023468882332551455,0.009378199777986748
DLL3,-0.002871865345009542,0.21216009422851823,0.21263768560012283,0.04412962749404211,0.2616333586119391,0.010213745429013566,0.13186124795361445,0.0017876101357214118,-0.014233632809397231,0.14955522585954165,0.08955301641616258,0.2922179229178255,0.023736758070274335,0.04335257792895,-0.17535891059085496,0.11970425708836964,-0.015166238346875983,0.05107092859589182,0.46866609925744657,0.46536632775234693,-0.07095449396165715,0.19626743665588525,-0.023323223161299707,0.09811935253646428,0.09848779717619459,0.006821359117889639
FGF5,,,,,,,,,0.03991984958753798,,,0.060918501778094505,-0.031651853415605315,,,,,,,,,,,0.05345785096480862,-0.05185257791380638,
LIN7C,0.07203015056120082,0.010366941014524,0.04985724382029361,0.0543034084429153,0.06143435578596937,-0.017509330249514687,0.09466215878913686,0.09457313768502881,0.01243562837001491,-0.008714413784438177,-0.001666260176452995,0.2171390319215391,0.10110644090025582,0.09496881839614789,0.1567689924709253,0.03125644210118478,0.014160395468954617,0.06802322564001984,0.24465614926517315,0.1001748122969746,0.019116939211614406,0.11412480377852277,0.05985563193948464,0.06038071388589266,0.016904555546885257,0.05482925857706914
GDF7,-0.029653233255622375,0.02014026211755794,0.041116349409896794,0.039017171391466376,,-0.0006189834133458304,,0.00918621979283997,0.02062790372583371,0.06652612776186957,0.046287647549246316,0.2106579837330151,,,,,,0.043802370385526125,,0.08526074425069961,-0.005756589105589993,0.02123114731539905,,0.0803254243328014,0.1055813110251121,
PSPN,-0.018764773108378888,0.06703598131830998,0.010551571865533425,-0.03644374357720682,0.05696888944134509,-0.012077196932150003,0.04032806374519799,0.01043401734450917,0.02771772728878106,-0.02330625826024931,0.028623292140831154,0.11461031192225701,-0.037882998006302494,0.002475325993145356,-0.013730699437652207,-0.05905117238370904,0.07876545100175185,0.0317801659676693,-0.04145361490980606,0.017838260372572235,0.046191921311377226,0.010873284064508867,-0.014525847801626024,0.08934667218360143,0.05623852427149531,0.12198268723478571
ANGPT1,0.04930056716591056,0.08125763323509169,-0.0033419369969333247,0.014882438645108442,0.0333591506871757,0.06451180785228955,0.017869174576324125,-0.03244542416459584,-0.08329211098061313,0.17533126267898214,-0.0678668674902251,-0.1457348956075044,0.0466967989401216,-0.028245989354363336,0.027429845611954686,0.09722766437679134,0.07078279666553818,0.026747977334141693,-0.052496337247197246,-0.09774887987024669,0.010780508735818999,-0.08099962044696514,0.05321739765172765,0.031062072345416816,0.07767180689933832,0.01251863626055662
PNOC,-0.054036957497415,0.13082927873491876,0.13861349191307024,0.09166891229115758,0.1466194946328033,0.10176100270669662,0.23017474725908948,0.12807936126339198,0.2688720067161911,0.21606988637464594,0.039162430321123626,0.32789068020785955,0.03333158652796263,0.1910743519602397,,,,,,-0.009041502761032685,,0.031971339108273336,-0.0005209876539115939,0.0039417856461322655,0.29147781222472147,0.15374293386366544
L1CAM,-0.024946289262652317,0.2752799011966584,0.11490784523672612,0.029344755110926976,0.021556306435345944,0.04891906828321937,-0.0005541676181059652,0.1838695409521525,0.19222332778530846,0.18373360664062874,0.154882860636735,0.36163569322678996,0.04873287498812523,0.41367152676072527,0.04940088427141474,0.033657462557747514,0.14643194417892877,0.0004697854460931025,-0.13980729528989003,-0.11835782741362094,0.03950196735434467,0.05218842562581784,0.007217738750195823,-0.005357678017581548,0.39511235547293794,0.20034998036120308
APOA1,0.09418376597451261,-0.049114455103093244,0.09513196995549514,-0.00830859635146147,0.087534872215409,0.031073641805894746,0.06953514867984802,0.03284293639118685,-0.00766179889975836,0.002805316275683616,0.0409678465972664,0.06982847304257593,0.09640381507566875,0.012371437377383375,-0.07649526715860518,-0.018434596964388778,0.026685225288391474,0.029975849386104692,-0.021173127521585088,0.015226869420920624,-0.06497044582284094,0.006751211286611793,,0.0730630417241353,-0.1205699403487539,0.11309006439036305
PSEN1,0.023334983369013143,0.047277198671896906,0.08120838830474972,0.010230115411883421,-0.04262780418982659,0.048205683633811586,0.07917258323405424,-0.014567639047765733,-0.1252867938633163,-0.008681126679395829,-0.04166617912858841,-0.324645115900951,0.032733927347034175,-0.15239461233823112,0.09974934172581754,0.18290400874705492,-0.039070493478054434,-0.026175725863936357,-0.041953503289274566,-0.020237940330980954,-0.007207349529249452,0.016790835943744333,0.025679936753825062,0.05324214384796426,-0.03615804084343811,-0.049160618896008375
CALM2,0.06761349503555263,0.26205211190186695,0.13277875844568696,0.06100922196428898,0.18400674294716513,0.058825960624217744,0.24575273284064614,0.19457029102384368,0.21768244433512732,0.2708122719474705,0.1679344447924034,0.647455327691418,0.09512473361670422,0.343293179032247,0.019414573022056215,0.1209678267438097,0.015070494838703962,-0.060047017753655896,0.3193518720179738,0.33146858412529984,0.008331176141128924,0.11126044438068139,0.01870214695809705,0.023543259229839242,0.2688180784998558,0.10615896049913326
CLEC2B,0.0395476753490281,-0.05218835761285963,-0.10551065270617287,0.044647838098905185,-0.28190203968830263,0.058706386199049956,-0.18309944340127152,0.005259893123756356,-0.10032898074329935,-0.05843322745689752,0.003309664451398539,-0.18032269287434416,0.014520242526788397,0.03817279773131251,0.1299398819808591,-0.08209249592164243,-0.024828931449314844,0.012472882502745109,-0.13675390971685275,-0.2643163290234458,0.0016236379493323883,-0.11786194443808708,0.16087014570104058,0.16186813574616177,-0.028072234768751064,-0.019134353630882936
NTNG1,0.000996085677021474,0.1596234163404789,0.04741120461307628,0.04547561176264989,,0.05479974084259224,-0.009082409765742785,0.0640662284253961,-0.021312643690363085,0.03501397550105682,-0.005001164042344616,0.14943356967810742,0.08894139847191793,0.1560611863982293,0.0312756051233237,0.04547627387712986,-0.029512358347287448,0.03720658649315128,0.10953243715043581,0.25687567929627214,-0.006113784278192551,0.09947461391590104,0.13410398230379098,0.1118419554720966,-0.013075906799216405,0.08149303963355839
LRIG1,0.05545564111249431,-0.09210926675114187,0.16301703068824613,0.02462814567920556,0.19282624623419464,0.008125872120509749,0.1765597329836153,-0.06813421487798159,-0.18060864250625483,-0.057150066181487866,0.009894524465095025,-0.22922336188077155,-0.06822048586878604,-0.19364989809816371,0.04808409505056907,0.13464600681501968,-0.010849639696113578,0.06941164784864173,0.35900289141521313,0.35809288275897594,0.03789678106403283,0.11391840709125751,0.04864533926738968,-0.019847511512547388,0.022119506102458813,-0.05608721204226549
CPAMD8,-0.037095092997349075,,-0.06492252964536087,,,-0.043432458051189504,0.05061764789939814,0.06948115116216053,0.007871911862272412,0.06792298718627182,0.0058982445577971734,-0.04550107083799628,,0.06409308163462962,-0.11796718134678606,,-0.004125491114899603,0.08132989329589445,,0.023963215966955328,-0.08512136246479822,,0.003962373881699313,-0.0165359804051601,-0.035189612374951704,0.00641793714960483
GHRL,0.03295043998543997,,-0.0005052351638004708,0.003885984242863143,,-0.00817346880277276,0.1281303430136789,-0.0097345631131816,0.021694230793565725,0.00817892519856801,-0.002579551383902769,-0.044234622475788514,,0.007224940398449145,0.02993171229882222,-0.011936186020136168,0.038601487492937334,0.018115000843818094,,,-0.0020670860218726965,0.019025050214892706,,0.02935319318088295,-0.06614195285264438,
NPY,0.03770331397636675,0.2328540354079747,0.02403621058558397,0.054446485601222866,0.14722508212943963,0.05317908871901866,0.1889208368174627,0.14141599927477744,0.14729151671028426,0.04230944489161417,-0.0023244620377157283,0.08376443475087428,,0.07321984089349091,-0.03235886090437199,-0.04201203282806796,,0.007140085165926745,-0.26629677774796917,-0.3163927398445841,-0.0933378884892236,-0.006821434347306322,0.04652722042940324,-0.007832120017247101,0.22314380135063275,-0.01886411658335401
MMP2,0.027697095900251014,0.11341360329768614,0.07483325012027557,0.02303243372326787,0.3096832257700718,0.006863332368165545,0.13767725838465833,-0.060354146760309396,-0.11833624242241947,0.023626130040713428,-0.004452539351875535,-0.19198719650302495,-0.1630134951538538,-0.28661900707807414,-0.011954356129306643,0.17844409496219846,-0.06334291304795542,0.1471218194274958,-0.010217215226840758,0.06492159970444135,0.02457922048006002,0.06067180830634537,0.0449770152535681,0.1126446900651534,-0.041365566642261736,0.07644763612843251
LHB,,,,,,-0.011765756478669643,,,,,,,,,,,,,,,,,,,,
PPY,,,-0.03305768416020246,,,-0.022833501938730173,,,,0.0070647087876317865,,,-0.02092455634788238,,,,,,-0.24560667281722753,-0.30863600741549796,,-0.07037643771475614,,0.06206895896859424,-0.05270157840188967,
ALKAL2,0.04493988487285486,0.0338201941003175,-0.025527629743619242,-0.034490097948114556,,0.008072518286490317,,-0.041143392212471916,0.015757652191725324,0.02032718546174433,-0.044888952415187214,-0.21850360776336678,-0.03295348303680293,-0.05867068231213954,-0.03714318130530719,-0.0014726961992934026,,0.0513369308526123,0.004750375365448333,0.07282310373448074,0.023649856031479916,0.020924475957041066,,0.02873126456941356,-0.1057126227488185,0.026286831907867046
CSF1,-0.06045877588219882,-0.19017115881469154,-0.03141115623161348,0.025330492496149055,0.011437922155252368,-0.03567406223662455,-0.19076755248545824,-0.053420823833817854,-0.14075236069069902,-0.05147663197618948,0.040805700262616804,-0.248171610002448,0.1483339501308116,-0.1265203344079581,0.012241836147222523,-0.039321759848077134,-0.05668535128207185,0.011053441459855304,-0.2544659469777424,-0.1728938274128586,0.07966446233151575,-0.10076386527882675,0.08181426015477639,0.06637105552675199,-0.22659148055175335,-0.16298749570816035
SEMA4C,0.11791648887028011,0.039968292826493654,0.02826137681973209,0.003656380636909787,0.07352734844979289,0.010257916155923046,0.07540495699866594,0.04657922747178094,-0.006257726498742914,0.031515575324631534,-0.004652661612337834,-0.04032299996839095,0.09912229418147019,-0.03566336385377446,0.0014451019456084829,0.0539398341018166,0.03956432474350838,0.031083631011240682,0.02913425256774259,0.03984626315778164,0.04866706477938506,-0.051263185536687336,0.1022192365624708,0.10162829353334626,0.0003177081534091584,0.10947434477566766
BMP8A,,,,,,,,,,,,,,,,,,,,,,,,0.0030604777766605157,,
ICAM2,0.0564539924916217,0.1405979854775404,-0.03662771893373002,0.0018140315252190152,0.07131357930003589,0.008920718545732462,0.0647256905389621,-0.024498013592418707,-0.028908545778809608,-0.0011142448012956454,0.01537242363793439,0.017022592802051217,0.11908471355752519,0.040777858555079774,0.06907176609372576,-0.014151140535531416,0.046112016740819356,-0.01861410371294196,0.15271487884481483,0.05380520539273478,0.06923929722809902,0.005599406329466759,-0.015006277055390073,0.16699430381224203,0.21050482572296783,0.05425477579970909
SYTL3,-0.03828247684371799,0.07635736649307454,-0.06928193925994305,-0.006111433739501545,-0.09308282597387531,-0.014506601747540072,-0.01593837663671774,-0.005081817633989286,-0.11192768524637704,-0.0801931882086141,-0.005422122655391105,-0.07948411227030422,-0.03459224377494224,-0.017564957378822004,0.034424912429151105,-0.07757188244645327,0.038426256922336706,0.04357299493069332,-0.14660553126103518,-0.05141781680780451,0.019976182888783868,-0.04587511991854748,0.034487809916316094,0.07778176347194862,-0.12238665055777091,
IL1A,-0.01867900581706621,0.01937719042920647,-0.06122466932313897,0.03598080032215986,-0.15909339095283306,0.040297647343911454,-0.03408435409112479,-0.00960189939826389,-0.05081173024763429,-0.07350447807416526,-0.024796565372968905,-0.1840058614982395,,-0.06544383449757292,-0.003537719726027633,-0.012633690271091097,0.010393189102215756,0.07165045443539281,-0.14194655922063704,-0.14889399895133962,0.1041581630080112,0.04801851739916321,0.037738418819181066,-0.030080218189749645,-0.09678967185343793,-0.005486003699500031
HLA-G,,0.0987126309655114,-0.06636248210074167,,,-0.01515966473074275,,-0.053321140873278,,,,,,,,-0.037696118093624054,-0.016276313045874322,,-0.11045806233801539,-0.03046627234544584,,0.011560664527598838,,,,
PGF,0.013051862961539215,-0.07457081306441675,-0.08194236762169341,0.007203777890440559,-0.07722050543732098,-0.02885913787421231,-0.0009238898406688993,-0.06310585392083616,-0.12650188286259573,-0.06183744637651361,0.0168407537743629,-0.04077999062590738,0.1745601738557844,-0.12355300401519784,0.14442704258339437,0.01760994682020151,-0.015869452475953023,0.048490312480714066,0.08174771887912954,0.05049172787950886,0.02226307402575215,-0.09341336572997368,-0.04987602775215168,0.13387281278308627,0.18594416408814196,0.059931975272136916
LGALS8,0.03199385719392177,0.08906432221432665,0.045006102171035504,-0.006004949631080723,0.055958381455230584,-0.013931769700949696,-0.019170749756320164,0.038350137331258964,0.06030552637089204,-0.020192402924532237,0.037480827658015636,0.17196440370280666,0.041270728972794615,0.09197336219959938,0.09980704928472865,-0.03249054279422274,0.019843903096896334,0.021152813888746836,-0.08582752461528238,-0.026859621528847667,0.08059157827786222,0.02467767669780411,-0.004566784725370481,0.09739144778574316,0.09064815824256814,-0.03348912816842253
DKK3,-0.044095482982829885,0.2069361991576021,0.11291202341267473,0.02455556446405032,0.17344748781593727,0.03172482945517964,0.27216902956207306,0.11917424251331268,0.2205966528349508,0.18994750407551753,0.14166712006362708,0.7150030328598428,-0.0378458117009222,0.3433534295454192,0.1311500379245968,-0.0021201553792544576,-0.012725728500232689,-0.012194251448416155,0.1290666453556411,0.08107851621176547,0.1158363479262911,0.02706093508189961,0.16657204758482363,0.03322159963899031,0.5369118529949306,0.1748057915543341
COL16A1,-0.007330647502139892,-0.03887909590017627,0.06528037518975205,0.003352407590543275,0.3106212275514546,0.07457618220787086,0.14366191014199872,0.11365244485762657,-0.08225729303925368,-0.04161965661346883,-0.05327823315498526,-0.0040212440768247724,0.14062788780845992,-0.2814881740992919,0.05325452759966993,0.029543009001712663,0.05103142949472278,-0.052169214622097115,-0.09506285403966303,-0.03387881994569883,0.04744383570462091,-0.01390997409500466,0.06737159571896038,0.17375175841225332,-0.06066920396699476,-0.02818372588167936
TPH1,0.04728183123573347,0.003101327656385748,0.0028494238868309795,,0.06464030789856537,0.06964991684401751,0.015033760897573144,0.01268504481599718,-0.0391617476567158,0.0026508151868278804,,,,-0.019298299396244088,,0.002172371233860764,-0.05855867606713802,,-0.05122406172430011,-0.0502987339891514,0.007771139572962749,-0.011799855916084774,,0.07482182333381555,-0.12994985402992212,-0.04226732734547959
TNC,0.02240526957240365,-0.17696200952560875,-0.08308352378009856,-0.04195593865053221,-0.1858297547228639,0.03145590308564083,-0.3082835351318348,-0.09749284812238489,-0.2003317681159198,-0.26525449569219006,-0.04997153985775505,-0.4748615216032326,-0.1724096030455922,-0.33575007569261656,0.16592751412289738,-0.01721778946547142,0.043111051885649565,0.028739510458343793,-0.3620475590740964,-0.23435026423722752,0.054497376474567955,-0.29318040328676576,-0.01934858207048079,-0.04041227631821181,-0.1942047505376895,-0.138198261859813
TNFSF9,-0.07508155935179384,0.20678399425694244,-0.016522773771638584,0.03541075198471854,0.10039859134436437,0.015562933983283388,0.12035498783538662,0.0503770418438718,0.06420395655073256,-0.009409531197183345,-0.03022163720332308,0.0463090860141246,0.04855423676172137,0.13146609512958893,,,0.020465762324870334,0.04178004845574871,-0.0031443219927839374,-0.03933931221781371,0.03376009226289754,-0.030885181909416325,-0.03631047554860762,-0.03000863504235378,0.04293772525351743,0.011374013569848069
C4A,,,,-0.04073643863197823,,0.001685536322929249,,,,-0.04820306685448499,,-0.025958655885727894,0.04355858137512282,-0.005022376618969955,,0.04612279071149584,,,-0.07776660360022991,,0.043906117608041625,-0.0583901999495654,0.03115119968363893,0.04154695120847287,,
CNTN2,0.07344667805921516,0.12165137515628609,0.02407711388391207,0.0010721191608656802,0.14488751333403194,0.07091072819188192,0.20042364199868565,0.07438311603799062,-0.06751171243097151,0.045865705112638905,-0.004129147591241434,-0.5179923321420414,-0.023697955330942565,-0.02730676583349643,0.10829948191274823,-0.028078164587904214,-0.019291537723339587,-0.012600746176760191,0.25340617481888705,0.24362283316664607,0.008443248285241933,0.16147062368891468,0.028068879859160133,0.009073625879005677,0.4462063807400112,-0.1225109549615053
F7,,,0.007588502786343397,,,,,0.010418663484561504,0.03703740062382285,,,,-0.007571370036532182,,,,,,0.013338578229190209,,,-0.0046597981620771145,,,0.10905829839694223,
LUM,0.04646061398232278,-0.007366350245209884,-0.06952103883451446,0.04767799697592829,0.03451594770319835,0.04050429856970578,0.01976368986202332,-0.05642588029803058,-0.11796494771577838,-0.06277242374683485,-0.017825119986080374,-0.10917523602154648,-0.09514304975382866,-0.031879705005720176,0.120718120767535,0.011344374554897285,0.04929934137570929,0.002983269018717661,0.009698749238085596,-0.02815162549131443,0.000705944539128601,-0.18468474530020734,0.04143981794772253,0.0633589275953605,-0.012380787338663837,
IZUMO1,-0.022117741022170238,,,,,,,,,,,,,,,,,,,,,,,,,
BTC,,,0.02411568310499054,0.061116128737650335,,-0.016619580458224238,-0.04625102163068645,,,,-0.05300784454014362,-0.0382079905658584,,,,,0.03608107837319014,,-0.03480727801497103,-0.023937426482592294,-0.017206385436800812,-0.037710969194185116,,0.06806315935112359,-0.13829917422400456,
APOC1,0.008665921752866169,0.13879428660447687,0.11526784810530598,-0.04903572929552874,0.2784600481940436,0.06984537773876519,0.17455402254358904,-0.11604025716095136,-0.18989055175960665,-0.007191680079897442,-0.1142583404593518,-0.6733255796338966,0.14845369924990362,-0.24687919250297932,0.15690007575040354,0.06416394063833941,-0.07400178060552175,-0.0032369685259613593,0.4380208085881701,0.4031610202195891,0.0012452001636054449,0.008883003257028683,-0.009672382380276038,0.02823203439338814,-0.09381088330525283,-0.07540869083043462
PKM,0.06275740358908707,-0.19994074405192938,-0.053761477851777616,0.06677100418698403,-0.25224775873561406,0.001300190147145876,-0.3034752506230613,0.06669681454163603,0.034199610911617405,-0.07533364900295493,0.1400048498710328,0.47592623456763855,-0.07449234963021563,-0.1440666480338028,0.003887746721486411,-0.11771552303584919,-0.021511852390303576,0.04290649060081886,-0.48521594920382216,-0.48712782992465203,0.08233701663595608,-0.15527664959208357,-0.052300888483339324,-0.01581977220224096,-0.19163455853730876,0.07759360302982612
TNF,,0.09761939471850492,-0.02053143907453262,0.029962629227220986,,0.0052163754869594325,-0.01823580662086798,-0.13113770858804247,0.010860253575047385,-0.04939196300548791,0.014495727123818185,-0.22057032749743521,0.11069550740270846,-0.0835494389938526,-0.025766951458426023,0.03460074116987015,-0.0762024469928025,-0.007275636237429939,-0.02353241904009629,-0.04163817023964418,,,,0.105523546447239,-0.018805896138610206,-0.12682971963910947
GNAS,-0.07232392437166443,0.2332032054439039,0.08441184810919211,0.05730156479871371,-0.036321413457401974,0.04302889379506247,0.35266359260629004,0.1986608946580962,0.27629479139974245,0.12723861645365844,0.1061254072549892,0.7153558079597704,-0.1415638073175947,-0.209532145943343,0.03491641323613858,-0.018492265313852535,-0.022200957408046697,0.04390506144375531,-0.08251373870757019,0.10707130860526526,0.02026041987933612,0.16355471000785013,0.07470503387441328,0.059205808330267624,0.456531744852224,0.20222796657289194
BMP8B,0.00547807681653767,0.015366786192767106,0.025718438076718926,0.08549423747269702,0.04914350686321568,0.016442612346649423,-0.00044898219411856357,-0.014452800293867354,0.025549521294594767,0.035753822700529056,-0.028125279762872817,-0.23403379757394976,0.034122343426487706,-0.04834387378566755,0.02623881750056424,0.11577868225618819,-0.013371276990330397,0.07561924907087705,-0.03421647562547745,-0.13118520513529125,0.01852975273680095,-0.09019873414061103,0.021164596143790675,0.08085828036803812,0.04515666820137754,0.024046918169686373
LIPH,,-0.020360578580082916,-0.06968330199177279,,-0.01513750469591238,-0.027918471267751575,,,,0.03098341163550144,,,,,,-0.005381622935608329,,,0.026985470223710402,0.03375694239171114,,-0.07186830335821205,,0.08943825115508137,-0.14781963545061783,
CCL28,,0.03511672462730292,0.04859839085099866,,,,,-0.010322641091107346,,-0.003293872225627548,-0.004719105998358454,-0.005712642820388849,,-0.021961511934623125,,-0.05626952174376052,,,,,-0.028370176881399794,,,-0.011630138119437538,-0.09651109838488235,
PTPN11,-0.007114220741094284,0.034568241406286865,0.045161095788198324,0.006501903422629864,0.13363871496665614,-0.015100922542898281,0.06344474572009917,-0.046313497988265284,-0.10952084829073257,0.02750496643068222,-0.03903487369109572,-0.1794263617877951,0.08767991754735241,-0.07444594766744932,0.08548393501036453,-0.040374814251004344,0.05458526471538113,0.07810103626589561,0.02344759165950065,0.02878889223413816,-0.02317040958230193,0.05426913362138516,0.0803579123636386,0.039494257596713565,0.3085527114164644,0.010063164717290157
ADAM12,-0.056229740260961864,-0.014026536292847407,-0.04759180236153994,0.02035101792326591,0.06371155314797024,-0.0017165918030879657,0.05062617745222641,-0.07947897526486965,-0.12167537791669242,-0.1498610161540237,0.07155014993947716,-0.07742329086176926,0.08174430476489829,-0.09914219845140478,-0.04624865925094516,-0.006128562576162987,-0.03932242959227016,0.13338913931399873,-0.17652529393506586,-0.1344407550325419,0.024565610912554457,-0.15475920275001054,-0.0033518963503687002,0.11366038493365663,0.02654576978295084,
EPO,,-0.057026854027682726,-0.06878246170960424,,,0.014891469243469204,0.021210898445929126,,,-0.028745182114404116,,,0.0025559468971701,-0.03231976738946106,,,-0.009565474660606942,-0.00506902222510202,-0.051061091233399934,0.0060140892280040005,,0.04262503864827013,,0.010330288274196,,
EDN3,0.0914166390459574,-0.020183172059289614,-0.0129544334041093,0.014625858702315503,0.005334300393474792,0.00041629282712718973,0.050105078348172134,-0.0952919492894326,-0.009000481001417199,0.0035025973970872837,-0.011819391909327211,0.11912981213493865,,0.1149029279539027,,,,-0.08805795847108036,-0.05178514521276474,-0.08462588971589535,-0.0038868488036033363,-0.05999273265227589,,0.04421245710014781,-0.057959913676664795,0.05729124598628918
CCL22,,,,0.01849454639974402,,,,,,-0.024602953126641687,,,,,,,,,-0.10842291123474813,-0.026177584436984296,-0.013737693893074424,-0.040486119122310094,0.0003095016493772499,0.03793324110956656,,
CCL2,0.027151144006111676,-0.16102518958094172,-0.17940697180967527,-0.007176810285221623,-0.009596131263327262,-0.013350183004966364,-0.3484880700436303,-0.07912287257881379,0.002295151161733389,-0.06787661123268818,-0.058366398640709985,-0.42174316112597265,0.08759941847722164,-0.15609544647999785,0.20025897422717995,-0.004162565360425795,-0.10064723137701873,-0.0037153481732706503,-0.3561030117229345,-0.24972350240794777,0.07589201937110929,-0.049283016654965005,0.11638249585084166,-0.03937997970238356,-0.1654549890901332,-0.11681151634505563
DSCAM,0.0369599837750678,-0.0331640293492396,0.1573511778667067,-0.0022110623618721396,0.1882472394201982,0.01944926742196406,0.012706341810149067,0.004231497653787768,0.04086350031111013,0.03639951807200757,0.02467504788380959,0.2211053151664962,-0.020554395997967743,-0.07868522690053505,-0.03545150309053009,-0.030136131484720476,-0.022569889496756427,0.0021093839888481646,0.22553891573647175,0.24111213433300382,0.05236388619665012,0.06851495756702282,-0.04099275059328567,0.06537651305919649,-0.016512624055617493,0.08213446360153545
GPHA2,,,-0.015479201365773016,,,,,,,,,,,,,,,,,,,,,,,
ANG,0.026606949176068886,-0.10844714452416328,-0.10956830282303745,0.024452785078530152,-0.21568399263236798,-0.03673287438430296,-0.14341616894279463,0.02544978065725986,-0.08506185868120474,-0.1417604889512024,-0.04291608091563537,-0.12784867028337177,-0.05912545199904908,-0.13061445722360815,-0.06246379719804078,0.006599758187149399,0.09975669561581578,0.032866562624998145,-0.1610456856573211,-0.21992517517613508,0.005586360266944581,-0.012673567031787021,0.009286823944156412,0.06576659840737784,-0.07049164850234937,
FBLN2,-0.03476163365817444,0.05295920093758787,-0.06299925248635564,0.02223656073552649,0.06580976119554915,0.06501621328548769,0.0324986391871456,-0.024831841104665648,0.0014287462143164017,0.019626535919300737,0.016393630551603307,-0.029296608281406396,0.09654372289522198,0.07017866112441047,-0.013259952241401583,-0.0437864171495307,,-0.015289365698304084,-0.09523675818727102,-0.07673521714772148,-0.006190327789661967,-0.07932490666225472,0.0725919876187588,0.09617070339620507,-0.06505289408034069,0.0965083693252093
VTN,,-0.016184297757031455,0.002311081837354381,,0.025315809091399386,0.05154210769134527,0.021543346031223428,0.007469025834576762,-0.024071643122846036,-0.010018500851265075,-0.007282786543215327,,,0.016891384649961146,-0.045809499149549286,0.028734585034190192,0.06317119447956068,,-0.022319690176960734,0.013877622469535753,,-0.005444904028568898,,0.0488367194349891,0.041267834226240474,
VEGFA,0.01918441451686257,-0.2102153244315505,-0.04581316221685407,0.002238126817334818,-0.346270237381044,-0.050571119262042545,-0.32946631191396164,-0.0257735073416712,-0.023460755751784974,-0.2710488375226537,0.0017943241217673433,0.12435322426940326,-0.17773921350436686,-0.29288627164932296,0.016801005213688904,-0.10896343158050657,0.04462124840951402,0.05062304985980814,-0.4529922308344079,-0.4562009756848044,0.08175284646564852,-0.10769474582410479,0.03515351672373999,-0.144951793927701,-0.3633725308484071,0.02525808312012273
F10,,,,-0.030354298301289606,,,-0.008200717212143653,-0.004105244941314382,-0.004973282206910688,0.017085436132985233,-0.0016427501110663292,0.13286448787488594,-0.006247223937968786,,0.038013184339232536,,-0.0065453406034643525,,,-0.002655767291608663,0.04807516325859576,0.0364500106197897,0.04798315501345479,0.02119218886666876,-0.04072154531971893,
SERPINA1,0.028125598410626805,-0.017759078101951077,-0.007113733559683116,-0.0304133003267835,0.09067473858625058,-0.057836474176144924,-0.16097038441028963,-0.02739262995959638,-0.09678785836534826,-0.02774103350356099,-0.03296918846323807,-0.46196069841844545,0.14554311196961894,-0.10551009660573986,0.0725687640524365,0.028515895445439355,0.025404756553815227,0.0655744622773275,-0.31528417519189805,-0.2569881437143346,-0.011595318096019694,-0.2370606321085498,0.010653182294629172,0.016726966865119257,-0.10458174899317577,-0.013500598490017883
VWF,-0.08620457305141742,0.10958906429336875,-0.04577994164291698,0.020183641350404815,0.20060751707570212,-0.07146682638504596,0.17569983549282345,-0.054779622437491605,-0.15242379965292255,-0.01764797130611113,-0.0009458038390582969,-0.05437560007398855,0.14929373393216389,0.07878104286022707,0.1304239921157952,0.011189017775809504,-0.02318860346399376,0.03812782269423205,0.151309961323952,-0.002419975148710621,0.040623874923886076,-0.09182912065092845,-0.0007556093173193665,0.03143531571074282,0.31389364795689306,-0.022934217104095975
GDNF,,,0.05205051970835735,,-0.0967295708619826,-0.014846175741005083,,-0.01669290515389208,,,,,-0.043049900731534536,0.049502782346840773,,,0.0076676780535688965,-0.02760089916589369,-0.055575527938634274,-0.09336978001797815,,-0.014687275001121429,,,,0.04905079642394638
VASP,0.0016376432827097417,0.008544282787883547,-0.05837272075236376,-0.042959958483570024,0.020143440822857753,-0.009981823114061596,-0.11099632411173635,0.007693731818910117,-0.1080981978694145,-0.051620287658224795,0.012344334369946542,-0.2007860502221764,0.09944700507466787,-0.10004452093376992,0.02087012022332162,0.027453177225879952,0.10376824389845683,0.12747441148348326,-0.048750173527535336,-0.06155723185298561,-0.013682708452598377,-0.07144131825237754,-0.023349981745906384,0.09929023722403672,-0.09301506434256016,0.14119501477161253
ADAM15,-0.0032714828110158843,0.01667648536956441,0.012355343083110475,0.054928089179744226,0.09719097392320962,-0.01818578045922045,-0.04746673660317785,-0.0316139968843739,-0.0794340735985963,-0.0018558624451450302,0.0011473956933417964,-0.1646887704891161,0.08482439791945619,-0.025072106930137235,0.0700102092337889,-0.0012313597499997112,-0.014110152554296006,-0.02497820872593709,-0.0709766409424223,-0.14169795655252504,0.06439005852623689,-0.11088287689607557,-0.010784629147491483,0.10236409575130964,-0.08526643699691447,0.0833728667954545
WNT2,,0.12619117227846866,0.07620578134839555,,-0.020283913908866805,,0.016251557617900887,-0.008322380949638405,0.15425000165802186,,0.0480421191046905,-0.0511858671568895,,0.09657050145679331,,-0.12598163081298788,,,-0.0359677319208977,-0.05030801994474775,,-0.011781655544426967,,0.020275240132301815,0.0314221269562488,
CALCB,,0.016687075065827905,,-0.0352787457917052,-0.012328528640761425,,-0.07533036654129906,0.014900711498454731,0.024751468194102684,,,-0.0034807276967827117,,,,,,,-0.04945337222443611,0.004010063735406909,,-0.03191233996186885,,,-0.13801932943196157,
OLFM2,0.03898706328727341,-0.010490252930268647,0.16747572776083744,0.010653109516012688,0.12574167822270363,0.043345377713471286,0.19815877003887028,0.03714709110320352,0.17162875906548453,0.010395933510383877,-0.08596431366082669,0.15791248548167672,0.1462652929701136,0.0990174795997622,0.07107314669072766,-0.02414924039410158,-0.03267088100933659,0.13262391693202386,0.2936024471724535,0.33276771344205647,0.041020460445181574,0.19099887756107975,-0.0326627373235693,0.08680236836600101,-0.034052968679292514,0.10962969225889745
MFAP2,-0.03503623263785699,0.020913418267828658,-0.07034475851348129,0.033814578238873565,,-0.031873452872485164,0.02594730329960823,0.02072393267254565,-0.12021157134925792,0.033801798793670616,0.0038382305488190807,-0.08482563944803702,0.14707463425125106,-0.011138845400057806,0.015340049090926306,-0.012078997197197698,-0.07305109530096024,0.010876063417066558,-0.06993581312477164,0.02230801781806872,0.03146045332291351,-0.002006227531268075,,0.131558426014652,-0.00042248272925257154,
HLA-C,-0.07544820556497599,-0.12849822222190405,-0.050636120172633386,0.005474387570900271,0.07635093311774893,0.024399479780787315,-0.1494447744489886,-0.13969552208124136,-0.20901005799878955,0.014058579123493366,-0.11357670687208153,-0.5805083635773192,0.15366841790462912,-0.28280285090354285,0.047511659076312135,0.03480042765169888,-0.025094502837444365,-0.029271358026312047,-0.3893088876463321,-0.3605258309816061,-0.0418531683046334,-0.18515057459847228,0.028554623502805708,0.06505419723436605,0.18610226941868654,0.008959807875312404
THBS1,0.031910927671600725,-0.06907306579081231,-0.11949319597015913,0.016278404377347986,-0.1327594870218243,-0.043143404690229,-0.30433728893436784,-0.012616483682186284,-0.07795073582462164,-0.1217539945674809,0.032975920891920724,-0.149560840789872,0.07240743241561792,-0.07332886120756751,0.07653913193824044,-0.004248062642890799,-0.04635021570864798,-0.07043538359907055,-0.04046758939311006,-0.03239731188286207,0.055254157020796016,-0.26912018923247893,0.05675163848105714,-0.028523819716810308,-0.09167411349299448,0.07577120401361437
HSPA4,-0.019260075154276354,0.02630229110092883,-0.019184624409108595,-0.0053811628291247525,0.049084193143597174,0.0318390986168611,-0.07790069147635743,0.031844266728005964,0.09369835505636889,-0.007160623785842828,-0.0628423174080594,0.20095407228860554,0.09745980962549233,-0.03898158773550431,0.0688805482352185,-0.02042197975228056,-0.015715645096105974,0.007006165455649721,0.12298179894176746,0.07526699620600842,0.032521973711477366,-0.013610067404095655,0.044558404673412065,-0.009093778621022829,0.10625010999665156,-0.11970660164157484
LMAN1,-0.04343899451633833,-0.1602988332475484,-0.06126563257656769,0.03623389260390118,-0.17624112897346025,-0.08773446195311334,-0.2618942962941529,-0.07062625138920942,-0.1297889313884016,-0.10292025984328278,-0.06555209155720255,-0.10826248628097461,0.002878866079108636,-0.1374981456933218,0.08054609014278422,-0.014274826985112737,-0.026201643298836175,-0.049348857225291934,-0.2447986301253179,-0.24067440276486807,-0.018827272166028437,-0.11314534628418355,0.05333799349864604,0.02174720060412191,-0.06935588833800557,-0.10238347662908552
LYPD3,,,-0.015602369299921173,0.04170657671152272,0.008295926075194832,0.030936496973303102,-0.09646498620282636,-0.0766420946586084,-0.031122566587983503,-0.018404612332603043,0.03689824498625956,-0.08487163133621925,0.09501073632391509,,0.03879990339614688,0.039088400964979494,0.04113656931953459,0.030716931042145075,-0.027421257786907238,0.05830069149401114,,0.0627048828769937,,0.05957940919761757,-0.019897020016729123,
APOE,-0.11053694864900587,0.14806927381135598,0.06427556319602096,-0.03585347543820626,0.13753115770384053,-0.005088265124474969,0.10425784956626788,-0.03729808132521224,-0.15611846517818442,0.07233345103659719,-0.06812064614683401,-0.6132976970231484,0.0899607321242644,0.12497350716641163,0.17439842648896214,0.10581098615352738,0.08913163485288315,0.08400838225457799,0.19331870548555222,0.16990605519457433,0.06620955230691361,-0.040304329771959954,0.04860029245904364,0.025797100049384184,0.3088964623413542,-0.1078320940884679
SOSTDC1,-0.028347929853415946,0.17386037897831716,0.06921700318394426,,,,0.1255253228505818,0.07109321141896072,0.03561810878107751,0.08087061236983185,0.005208297330784186,0.37035272715252743,,0.15259184339180135,,,,,0.0623755083520201,0.039333021800960086,,0.06502255544005195,,-0.03292811481510163,0.06375432775342256,0.0037054354299704277
ANXA1,0.010641906294140076,-0.22255022647078038,-0.17065940425639237,-0.014510341689010975,-0.23160028892139475,-0.0008510475346582469,-0.30154040474822125,-0.16260914010352512,-0.2099175348731513,0.06539471653506851,-0.23149630336803653,-0.44438633505820285,-0.043738063317486246,-0.25567333726465746,0.16611778139561145,-0.03690397631785017,0.08216065637447052,-0.007313256214692564,-0.18571366287157756,-0.19888608788331605,0.051758121728034616,-0.13827818437442127,-0.019955818221155334,0.008839258242888792,-0.34292474448462523,-0.016695722340200517
WNT2B,0.04420242248602064,0.05799222922799686,0.05243834104623698,0.06559145104933568,0.08048769111135537,0.03261510971440324,0.058038993680568585,-0.004931194340415806,0.0374974236303624,-0.04526031527027357,-0.03605454185697148,0.24553301593466784,0.028452374103290372,-0.007492597478329817,0.06559377306733256,-0.036044548621466624,-0.02108851182888152,0.030619139758927345,0.03389192612868912,-0.020526248649920524,0.0455099008790328,-0.006620127697994171,0.08137429088508977,0.0722764449788965,-0.06309246011420507,-0.04160152421517147
AMH,,-0.0052956007827830815,0.06554103017854744,0.07508064054521268,-0.05459564830390772,-0.0037958318005297024,0.058442297597139994,-0.011145848343084606,0.006494136620974078,0.042934452066552144,-0.012746077656504578,,-0.02541143473951936,-0.05527078006374003,,,0.03192216678053695,0.005594614117352248,-0.03159260664121746,-0.012358575579743816,0.049209463641579514,0.03848696877172238,,0.04179912810213641,0.011628230741786282,
GDF10,,0.059073466688362435,-0.02968606834065605,0.028181164237129686,,,0.10227927911713773,0.03586327142372429,0.010194961540277365,0.0569552273952558,0.07027520487711575,0.16134269238330956,,0.19672722079215607,-0.010184353188016831,-0.0028101838180343702,0.08561318942649704,,-0.003576277603707271,0.0009216645407674062,-0.03311806592790052,0.006809946516073471,0.11824583062116245,0.024633546892021085,-0.037339372744722814,0.09994794968932108
EFNB3,0.009309260839354069,0.04501313591553971,0.03898647959400667,0.011106073446312273,0.08313960242408829,0.012807192608164084,0.14658401264654253,0.12598562335958347,0.14156682040204946,0.06214159986113302,-0.013838259611337873,0.535883727602057,-0.01644011332927545,0.24382533355427172,-0.04143378877345167,0.005724089816083013,0.04732509177281145,0.13555370620480225,0.11010871463255047,0.025906945460445755,-0.03752296369945362,0.13626796463072952,0.05263322290194749,0.1186618005982366,0.14497464524638737,0.13892260062846343
LTB,0.00033294321704206833,0.10897763417039405,0.03816044511204315,-0.033130803537115484,,-0.05202897701305596,0.0669600722406409,-0.06920858868669075,0.05440004310779678,-0.01152121382901185,0.010412360216587103,-0.08653695692968412,0.01578696283505706,0.016427217057928527,-0.042907246900793825,-0.0176574987673698,-0.013169879581205501,-0.020364133948578417,0.0056124138240063485,0.09997745215667675,-0.06961846976757552,-0.024272061217813893,,0.12203404867981228,-0.034508790501090875,-0.004294443551123133
ANGPT2,0.014467323753791452,0.14327599660644286,-0.0544986126314708,0.06263510071662454,0.09296516356930627,-0.04235359773337337,0.08106419397970757,-0.06508764061048912,-0.17690015402265089,-0.1822075427141799,-0.03518294822388267,-0.13158293600142465,0.18340338111094284,-0.024718455670176387,0.16366140833590848,-0.0016621530242126904,-0.07968694870309101,0.16969780667316112,-0.007531688940642067,-0.048327548556627145,0.0952728930260709,-0.1379985970246455,0.03027698155185903,0.05259938209391704,0.24651724487351745,-0.03585976191277966
NRTN,,,,,,,,,,,,,,,,,,-0.025793145840113833,,,0.03505627722635894,0.04451273428853533,,,,0.04529223591023701
ADAM17,-0.051519408725681566,-0.14598187964170198,0.03780251975911584,-0.039940916720572435,-0.1090678783057727,-0.03543424884395028,-0.10978574338993069,0.011794144119220364,-0.009061604496263033,0.031102051063065034,-0.023921063082777135,-0.12009937163584034,0.07719346585046159,-0.06741511198552622,0.0785152253582792,-0.04990140696735531,-0.0884432451355681,0.06863895742822537,-0.23399639906976616,-0.16270732548230063,0.056724070499933804,-0.03783706769792315,0.03360125593432112,0.07360542271670108,-0.08786722419191331,-0.004001306783628698
LRPAP1,0.009216404369939249,-0.012920646108456333,0.1354043715322427,0.06948753692094901,0.1185931059288778,0.03464583559074879,0.03203075123047731,0.051459882222347056,-0.107540018591859,0.09217189790076032,0.051685209902736236,0.1410826595883475,0.09967622706514642,-0.030407340614344674,0.05759222403985666,0.06246193085236763,0.03535473473224943,0.03305152437740205,0.09149276997582313,0.08624667538955423,0.015629031696675247,-0.00377236566338676,0.042514532204618934,0.029224100045887803,0.13672430328325022,0.007540373499942836
NID1,0.014833685067569534,0.11696075881367024,-0.035507431520686375,0.022704169675610286,0.08802642525168451,-0.039341249313783536,0.08805498439359011,-0.08041573664635542,-0.13905287875654598,-0.07382312852271566,-0.05544433170032893,-0.05952528151189778,0.1305869759767834,-0.10746337109859323,0.12445560189593144,0.07841356597379127,-0.0029837685819702727,0.09416037965563104,-0.13490371489670128,-0.1958672998374438,0.013477726757660239,-0.21308806904691874,0.04842237294347334,0.03754593698457172,0.10664583091213861,0.028241120404742373
