,MGH258,UKF243,UKF248,UKF251,UKF255,UKF259,UKF260,UKF266,UKF269,UKF275,UKF296,UKF304,UKF313,UKF334,ZH1007inf,ZH1007nec,ZH1019T1,ZH1019inf,ZH8811Abulk,ZH8811Bbulk,ZH8812bulk,ZH881T1,ZH916T1,ZH916bulk,ZH916inf
IGFL3,,,,,,,,,0.01756496945171418,,,,,,,,,,,,0.029050154045179355,,0.07120417589884045,,
BMP1,-0.04411952068941722,0.09295431007287328,0.18176347269898474,0.061807400282697274,0.04693397948375263,-0.0568191012052321,0.008031443175805874,0.1283355622760138,0.13998438035771937,0.0051629718197573945,0.01916968942195179,-0.040937917181879016,-0.011025347587253383,0.03227111677900738,0.07761035826002675,-0.005049055102832987,0.023169384072988276,0.07071054302017393,0.05418415689596103,0.018541941540804754,0.07229448505730159,0.14402968489171716,0.050367659319021506,0.056047410443900034,-0.014266281185698773
NDP,0.015083308265168086,0.027836290450099426,0.03946434007758699,0.005882326168376189,0.0405590170712304,-0.02751680363976863,0.08847256719098769,-0.020547100880193896,0.0015534638890529538,-0.006456665172823523,0.04687023811267267,0.002994593068151145,-0.025104150783893258,0.04329295499991592,0.09247893806147348,-0.03454211107633765,-0.09358284643519361,0.06991713450693267,0.0487561182433263,0.01428714266461124,0.05089577309238923,-0.13097810839088225,0.06101952210249923,0.014596819103395471,0.03067654041904089
TNFSF18,-0.0035338934073538713,-0.02021591163224621,-0.032076449006157186,0.03778638746149464,,,,-0.02566219265862897,0.024756429692594183,0.036065735299154564,,,,,0.1052472729612229,,0.0880393785311161,,,,-0.03501197110337295,,0.07552064681232465,-0.0043028362203948066,
IL36G,,,,,,,,,,,,,,0.0019258758885555582,,,,,,,,,,,
RTN4,-0.025902369105984167,0.02493705265918075,0.15693611198425828,-0.00422327816639458,-0.08264742174509075,-0.01729853417310982,0.12757021413367847,-0.028548345301743668,-0.07624560095475263,0.015677850088410196,0.03475020193252957,0.053206524750739344,-0.010168993977047795,-0.017716222994876,-0.035895505114106475,0.09723048552260666,0.16881044571374673,-0.04525133961864726,0.012260165697626446,0.03463051985724008,-0.044710760391023584,0.07985396591581634,0.09506670856792754,0.011327915083739006,-0.04510640184405214
HEBP1,0.02997996735661565,0.019452322863413557,0.12519754997431107,-0.014227186767359987,-0.01608368190014265,-5.680035474142591e-05,0.01269585004463327,0.028327241965898066,0.07196095398528962,-0.011064618771556655,-0.003098678924599889,-0.058537924507093275,-0.04458774268284562,-0.0035184492386034624,-0.03442874914675013,0.07993474650286815,0.07151506870229268,0.029473202911731788,0.029001899041431398,0.042440004575152936,0.007025694426812155,-0.07105659090842548,0.015395785064169052,0.01479885811760581,0.021386695426203643
WNT7B,0.031120891934872583,0.06286428670042203,0.005302971048402874,-0.02792579384410698,-0.0044465856244042005,0.04363308675692297,0.025670070491204046,0.04783877908561636,0.059346260404005806,0.0848841593227441,0.023758143458793547,,-0.010341430831012851,-0.021928434377060275,-0.03247092985241628,0.045391072191987,,-0.003181255639106386,0.0371983981882407,-0.04901579734977947,0.005083779320489051,-0.004407828213516998,0.10946252214941657,0.07292142404918076,0.002383890444550671
PTMA,-0.08194401383054244,-0.09642418103227594,-0.15509048726108005,-0.003419768947757614,-0.03387536950630418,0.03666835889721939,-0.0930131014972729,0.08859049975539016,-0.1257261793643751,0.01341791587622534,-0.05859032866389732,-0.09165806845336943,0.01376697404132371,-0.031695359363982586,-0.06347448711024953,-0.10535448008601628,0.013787115418366597,-0.11833794019167553,0.02382989973358698,0.14084889656004249,-0.07091300070963208,0.236286563878519,-0.07283798838746625,0.0006729164374774197,0.01476557614384331
FASLG,0.04665425799571169,,,,,,,,,,,,,,,,,,,,,,-0.01013589621462867,,
CEACAM1,0.051844393744096405,,0.11355791998805857,0.000942443202964428,,0.03306717516502755,0.13376467077560059,,0.05238418625415388,0.052059980060971095,,,,,,-0.07932573370707437,0.03473769164290237,0.045759765069614176,-0.04834481432621938,0.008090516505571216,0.029375025375637874,-0.039668629252734504,0.00879791165575116,,
PDAP1,0.027365093497760812,-0.004881569524594373,-0.02012535369888694,-0.011778820511697265,0.0032182367068968923,0.056919215755228444,-0.07121949336900019,0.0635895623794913,0.12220116004342017,-0.033066843253249864,-0.015741517340226014,0.0606213809625786,0.03182158976023949,0.0192061491822645,0.1257180971005815,0.025340411039683514,-0.01041707646552762,0.07528124551052981,0.06291727366530529,0.08768438534436875,0.04836879286434832,0.09998836240745367,0.043524304179762274,0.06929685678741027,0.0321123341815992
QDPR,-0.15886834406301822,0.06080173070149603,-0.1656287165428942,-0.04260080388360089,-0.05204434714374934,-0.05180917680565043,0.017859731173227054,-0.11937096408949359,-0.16420368828808385,0.006604471233562862,-0.08160675505406774,-0.21957328899770215,0.043155634254653776,-0.009617316256982117,0.06777186788368479,0.02216281587987681,-0.014986461910399046,-0.12418761067544272,-0.041819753092424965,-0.008387925313148964,-0.013879624214015025,-0.16524568153295524,0.1577793478405715,-0.11890315347747388,-0.006634986812362096
POMC,-0.04793459056437978,0.05473496558428158,0.07054962420605682,-0.02061962876459343,,-0.019589502404451942,0.07337813388365984,0.008377906307163849,0.0514337621438394,-0.027054573327626685,0.07284319841481814,0.011512802424965544,-0.026341202466415914,-0.03545630272887859,0.030039849559127692,0.0808568038187067,0.028396074163708138,-0.022730199511531966,-0.0052577953189000695,0.08573702440721351,-0.005277419482425063,-0.03305811598132802,0.07209707452176088,-0.007545145654151657,-0.021500383427866115
CCL18,,-0.044019186782141985,-0.021181207809212302,,,,,,,,,-0.0275629490731416,0.004030935697545418,,,0.061814190371746944,,-0.06646193944792059,0.06276830995183091,-0.009846678344016641,,0.03609814626256793,,,
CCL17,,,,,,-0.008528463420944954,,,,-0.044528756722291896,0.04546424805187316,,,0.062449265665360694,,,,,-0.08493012895855126,0.008591257776910034,0.047067655481112906,,0.028803866863185066,,
VEGFD,,0.01708278371806536,0.05828849047285249,0.004493482790930748,,0.004515189513831161,-0.0391959898938905,,-0.02977700599730809,0.0526756290797058,-0.028306198482262786,0.01890661693234922,-0.01779718118867052,0.02101811989638889,,-0.007541068120821774,-0.03373021628198015,,,-0.028240746731247737,-0.03664324678035024,,,,
TNFSF13,,,0.01493186913970619,,,-0.0040096187269670494,,0.015067592127666765,,,,,,,,,,,0.004598201164433865,0.04147782045282522,0.07448645988633751,0.0601083988425618,0.028517828047361072,-0.0535288933002149,
WNT5A,0.07056455710425058,-0.09636862366616683,0.1296418380377481,0.03208141865704507,-0.014484666987037471,-0.0017349503462805505,-0.07385637173689513,0.10330459039740228,0.12181024178392233,-0.002614702926950252,0.042010231551226664,-0.021504996616618862,0.0015901836980152261,-0.0511787824011003,0.023847230424390173,-0.04716278129266353,-0.0641356324882693,0.079479588712407,-0.03744840921027099,0.03824180160820466,0.0725370246977885,0.06828158033874028,0.10623162521955762,0.08722354583135708,-0.00933610044421955
CXCL8,,-0.065149540711816,0.17381528356564085,0.03217602778929166,0.0603646545489312,0.13786337908860893,-0.06923628823273782,0.012336497997440951,0.07540702512593239,-0.007012273208213993,-0.026359962821111214,-0.004892562093251622,0.020190548593663923,0.09669049752832884,,0.029743778080774334,0.137298908789221,-0.029630084348873424,0.04888323643488709,-0.004020437272162193,-0.02086415796483967,-0.01964468367149355,-0.034816395544420224,0.06247968060130405,-0.06217274490007105
GRN,-0.10981181061863336,-0.010735575399729809,0.1911045892731803,0.007454640784337109,0.0030714708244162572,-0.06283924406593394,0.012292483805320149,0.047798399379193085,0.0510448698524002,-0.04287596867451506,0.00803574015155472,-0.1049927229047428,-0.011423612339721492,0.015455976296052972,0.07921536404499567,-0.010181177466488637,0.13437117404236,0.07424124773763686,0.06466003179550978,0.026823805787586665,0.08399941977884348,-0.03581594510910657,-0.06422863868711096,0.007573738945783976,0.026119634497125056
MIA,0.0553173623528711,0.06856860859807522,0.06211718847439514,0.02194862841841269,0.08375797389220398,0.040297195329545774,-0.007007113540587642,0.020338192298497385,0.07687212778506734,0.05176407770235295,-0.013386804986831565,,0.008600120573819528,-0.012677837952401376,0.050503537303782736,0.03352916970986045,0.007337558382584959,0.03693628621437745,0.0017811154988178013,0.0080532322623046,0.05317224002363704,0.06471571160060734,0.18671242615242042,0.16833597458502964,
COL4A4,0.02082772453292711,0.071099847586123,-0.024552906687525446,-0.05789946514779594,-0.01991082136462018,-0.0016953595755888045,-0.10491216466639071,0.057288579648251375,0.04206931166128647,0.0012765826203842646,-0.015136702195962054,,,0.046659715431053905,,,-0.0995306196114412,0.021780688607352404,-0.001166668969303338,-0.002421798706085179,-0.0038003221669929265,0.0679217586195239,-0.03851295522638041,0.036215535654423446,
TAC1,0.09113853241309541,0.09136605156496513,0.03143229296914531,0.018349047816595354,-0.001110814280399729,0.056076026994766257,0.16620573213699807,0.020816135798039856,-0.010839254880519325,0.026212099599507592,0.0855293191934832,0.11529105704736102,,0.04757247345130789,,,,,,,,-0.14972297345285432,-0.02054698513626906,0.03351559542376963,0.07902652214326635
RARRES2,0.20229940979133554,0.00999215363791512,-0.044546762045859,-0.03195799755150122,-0.06194657359310629,0.009437082867405527,0.021325114706448618,0.05737416644767875,0.12016755848807478,0.007485984989637186,0.00809444239129784,0.1219633635500011,0.05090497883082164,-0.0027942683629981753,0.025149737204771722,0.06943827372949561,-0.06864349469404397,0.0004245521041929793,0.04796127453839577,0.06279543905341582,0.03025356676058338,0.016611214180080696,0.06733532957459738,0.03380672124714377,0.0616374951877944
FGF7,0.04179435969416545,-0.03607352046312947,,-0.025451498973972527,0.03521676337197821,0.05460371766182622,0.08859631478606385,0.027826152582038067,0.030682687037009698,0.000978979922771812,0.04658835257738348,0.013182275597013526,0.04558032497105984,0.044264046837129346,0.15386243293040483,-0.1291288572304893,0.0484633639175541,0.018538325267117094,-0.05628416443637959,0.044233345848494386,0.08174429130482662,0.08572893573183653,0.16798911160781688,0.10486483603971261,0.08766700899679478
EFNA2,,,,,,,,,,,,,,,,,,,,-0.041670584571145496,,,,,
HBEGF,0.0191022218938313,0.04462249106498124,0.22855427219538524,0.0014065725962030015,0.09823717704830538,0.0783330706139313,-0.02928375038484854,0.07823971232086369,0.03526050018384525,-0.025913935172065958,-0.0019256418595076151,-0.02471102421878044,0.02934512293354456,0.026574056683001914,0.0501323065991021,0.040196500220063276,0.04470199326364933,0.048568651151719947,-0.04046698055187982,0.03878900470229833,0.030179008900398978,0.03685425907504509,0.09059824958612543,0.10824807355648285,-0.00799700023367828
CSF3,,0.05889391353856443,,,0.10782536740141033,0.10431697309084825,-0.007179054529683767,,-0.03981503637051079,,,,-0.026737172284361743,,,,,,0.012904368636156242,0.044969144692041316,,-0.00500946245298271,0.001887872133184526,0.045760562523747904,
PI3,,-0.06451116919191782,0.12372668502304697,,0.105882964872638,0.10543656514166193,-0.009604658887573218,,0.04560534205272228,,,,,,,-0.02149830535645236,,,0.13596644460078472,0.11751153573447112,0.01407252981180629,0.09855663905323006,-0.008010107248190077,0.12611544623182083,
PCSK1N,0.14798808251289644,0.039500677978522795,-0.09889116491874728,-0.00041599175067773964,-0.04244334965445947,-0.09410749560228811,-0.043940966155032374,0.024185181177442245,0.027177499264185577,-0.04641061081273248,0.03818158630904015,0.1547628851926726,-0.02159389228865535,0.020072678502709097,0.04675361944883714,-0.023899812224816065,0.05536816700394659,-0.04647900202753257,-0.041099176402750494,-0.04270172802670334,0.012155828831627415,0.09105736349912845,0.07287001570896244,0.004475148929421914,0.06640465476389902
NTS,,,,,,,0.04351202264261861,-0.007870561232971723,-0.006420060555613207,0.011150694828187318,-0.027202016036698584,0.05308487047851305,,,,,,,-0.020499671207271947,-0.0221394666000948,,-0.12214828276711556,-0.027095529833731438,,
SFRP1,-0.02450704923407881,0.13812942271580603,0.09175804869268185,-0.0006677228089365415,,-0.014560675462331394,0.16953608225583663,0.032161187343717514,-0.0016122779790965572,-0.012464670027807377,0.024611099946736083,0.04880917269526325,-0.005681004537525107,0.06703487019777879,0.03227568710245924,0.0008020216501424056,0.014534926449770223,0.08271512303240075,0.040367425531872315,0.07991691761007085,-0.052045492860487645,-0.00883409861481252,-0.0024307015012973413,0.01755314226586531,-0.060187432652262875
CXCL13,,,,0.012826580116510222,-0.06505788465328309,,0.019760236809164847,,,,,,0.07914826393082783,,,,,,-0.047907935817141124,-0.00683932871027402,,-0.04803151459472224,,-0.06103099166815805,
MICA,0.026293901811624512,-0.004883675793420873,0.14713921337214714,-0.003767940611119507,0.04251411300861116,0.09022647996248481,-0.021246912330083204,0.0718226444252868,0.0864038779974594,-0.003155275133903531,-0.0015703236484101769,0.07176901343443548,0.06723208483469605,0.01315078350256089,0.07608098261592687,0.0047841538621630295,0.059858418402939956,0.06367531068543535,0.008085812097670711,0.048911984194805455,0.040022725095549466,-0.04783610734300008,0.09154130227797466,-0.028799690944996695,0.12982595326709043
TG,0.0008620969196641929,0.017305830937738846,-0.05682068472934216,0.052273560423170315,,0.06310204894886015,0.005095201065955874,0.12971419936387268,0.10071519066646012,-0.006831390301415595,0.0023787594567095316,,0.0559910222147928,-0.021092244497045384,0.11525917484194925,0.030965411514439448,-0.0016133021189576114,0.04663115265148284,-0.011671812306714107,0.0441097439618325,,0.011900449392518466,0.05676748820277871,0.02504151729479182,
ADA,-0.015140756293865729,-0.02945950557184441,0.073403447593495,0.0017556255700321981,0.04287770210642036,0.059955714552966256,-0.021084835779857387,-0.01712242293170145,0.07952051058657877,-0.010371980041598635,0.0021823995619501403,-0.0027093145956256144,-0.024936506522783352,-0.04974408779834604,0.0638151282050181,-0.11758633535585311,0.018561164347577364,0.01699164104899882,-0.03267017786415215,0.0035481659424303536,-0.014726070831777141,0.04150086413879732,0.09713026500245354,-0.01574899957544274,0.06085773581579723
LAMC3,0.17994011246935804,0.03820344030562454,0.18985232999578822,0.05458749212327659,0.04217069152772212,-0.0726773140305903,0.04933173799955207,0.08709885030670127,0.1465601629759762,-0.0349404313769685,-0.042405490627167745,0.07077812723428516,0.029799266309574343,0.06406860697134531,0.06791166327673277,0.005419514581304197,-0.011611385602757556,0.0454058403290166,-0.06357550843006889,0.007412185122649427,0.024093003227357968,0.06280968458298716,-0.07996463451478754,0.012496581884117485,0.009270875076059596
CCL7,,,0.09241918081975915,,,-0.01895643179907459,-0.0278475296961897,,,,,,,,,,,,0.05864600895605917,,,,0.052336752565459346,0.13149253798949717,
NGF,,0.0693401484698009,0.08957366022239009,,,0.05992915515851424,0.00543570098602921,-0.004124382022669142,,,,0.0783077606117474,0.05706657206271238,,,,0.009955063774348946,-0.06505588341701361,0.008156907363560277,-0.015839916213159982,,-0.09900064468312628,-0.026855018096862943,0.06899701346313056,
TNFSF15,,0.10268503783642006,,,,0.019772168701191934,0.0014567088775756284,0.06364542599050416,,,,,-0.017026756847060464,,-0.008466359568271544,,0.026467183867846193,0.07325587247320249,0.022407326709392023,,,-0.012025092627957132,0.028916182947037947,0.0955573777667925,
HMGB1,-0.051290314922243056,0.07537872506538203,-0.14237103380092966,0.02076875743306318,-0.038685248032999414,-0.10796784764565033,-0.012171720099994362,0.06454911275837562,0.07496787684792948,-0.027545746726719753,-0.028253064506074323,-0.00454718051811738,0.02114832829587895,0.005568964973095913,-0.04783079583320622,-0.09567696505494418,-0.01709762597637542,-0.08260839752223376,0.15360143290228223,0.18010213272989242,-0.07505448395719515,0.24605167802312464,-0.0035818039633888246,0.07087586046464162,0.05314614384626812
ITGB3BP,0.025835339354690817,-0.052359282689736365,-0.06161769272860344,-0.006367798183429907,0.04000882056312205,0.02234554416569264,-0.0027803098351940813,0.07867827309420142,0.07864075058817897,-0.023497348000072398,-0.03508353827449218,0.054664631687718464,0.019377169904406973,-0.01228332621589988,0.10005940776068498,0.04805273781104311,0.026703591673899883,0.04336090351907627,0.06507403306651163,0.1064614189930681,0.005937147196500405,0.09190594274554087,0.10992406240622925,0.006091125138428259,0.014592525766315171
AANAT,,-0.02912603432264406,0.030338723051999455,,,0.0050397013699002135,0.0010732747943411542,,0.04076729806813666,-0.017983727840224614,0.026403024071816147,-0.04183718832361217,,0.002835768116220632,,-0.0032669176511940234,,0.03305843516720345,-8.1117036845533e-05,0.009172096353079577,0.08928999470960941,,0.03016059631055851,0.048317321869750914,
RELN,0.027977370050165776,-0.04512148183961087,-0.019854601640211675,0.04400338364599727,0.04553404215062279,-0.013634099385254722,0.10277762032074785,0.03645532875661949,-0.015427233926822687,-0.04241137517033576,-0.0118851198737962,-0.03044641076299527,,-0.006826577913773423,,,0.04498702465562742,,,,-0.007111242428313227,0.02321592720431856,,-0.030061789591926697,-0.060895665218664935
IL15,0.11154798678508906,0.016700756455848,0.13557847990011954,-0.049571694117277194,,-0.0033951317380555277,-0.04287810570343121,0.0489475726448121,0.09716868959197653,-0.01603662825468105,0.02271595427251048,-0.028234033708446165,0.037530720992637726,0.0006527991071461271,0.04910024081497286,-0.06805285163281101,0.036924249132658404,-0.015909556031569145,0.01242906233812685,0.027480990785484445,-0.018087838108755205,-0.05166894638194059,0.04186938656253443,0.03992458977734151,
UTS2,,,,,,,,,0.0731909525361355,,,,,,0.019487473750234498,0.017183300140210214,,,0.0410887098066442,,,,,,
BSG,0.11062751782707993,-0.14605413686095334,-0.18200980238863387,-0.01036858919279018,-0.011835345372902954,0.00422835003234829,-0.09160766550302528,0.022408245457871893,0.06912020041138409,0.002782657226466899,0.035024968837398335,0.05617675165441877,-0.021284183593678858,0.04251494491867748,0.1534178419291831,0.10369177560763687,0.14735575491981115,0.007616595593706716,0.17621939903733333,0.15468500870353888,0.047769835397909716,0.0698041115567303,0.2962399876003099,0.16242840679093198,-0.020690978171482653
ADAMTS3,0.0461879635771752,0.03671692231701339,0.08672504747164796,0.013827140192441049,,0.05897468075992957,-0.029675666299567256,0.010575943176997992,0.12874031459055033,0.02919331623725721,0.028233580844250195,-0.012018893514366446,-0.03340572423683917,-0.01345426124560921,0.12333883985741508,-0.032761198748189356,,0.015679225399056702,-0.021861714049329368,-0.011898549839276828,-0.008314946968525442,-0.008649728143752035,0.17307029174358468,0.04442336898147123,
CD34,0.021297774936586314,0.11860073875386148,0.09367841626631063,0.01371790830531461,0.050263059601091155,0.022273546013215476,0.017087235095568372,0.022807058911774494,0.07613616977941771,-0.023455663399475662,0.028470365212831045,0.08136921118946519,-0.019474510354759285,-0.002159935677596249,-0.03078329363182436,-0.020687743607292884,0.07581155817214465,0.11284013572206955,0.06216870821236311,0.023943457402800027,-0.03758440661119322,0.0375347980251769,-0.003846498437073093,-0.058476428033067324,-0.0760910621936341
CCL23,,,,,,,,,0.07078526414181695,,,,,,-0.010828798878690067,,,,,,,,,,
PLAT,0.07663234163765173,0.09028320657479107,0.13210159773588312,-0.05230693391456813,-0.013811210621611785,-0.0757698354269542,0.08008147188169044,0.0576765577510853,0.07367876880847735,-0.05469659328687629,0.010871388514535648,0.09771250853178119,0.04927133874122959,0.030377000285695153,-0.02095823797601967,-0.009568891150360035,-0.005594084138766901,0.10426579474495035,0.0477916559695957,-0.03909732031354027,0.023089080992918756,0.4205970128495911,0.12639322171235418,0.14366584424369488,0.02235341841642175
NTF3,,,,,,,,,,,-0.006738886533792629,,0.04898413353914047,,,,,,0.03577627876025087,-0.07978839514485296,,-0.04161768555746537,,,
LTA,,,,0.0068795597815248756,,0.058139525573735674,,,,-0.018014327481930152,,,,0.00631337587214499,,,,,,,,,0.059933928898412356,,
CKLF,-0.02550383055101454,0.055045720941644144,-0.08970752372740276,-0.0022131187724877773,0.008792836449364266,0.023256110959030712,0.04542070464661857,0.10073759918136736,0.09044190414787985,-0.0170837505273424,-0.018734006352338878,0.0038729367739585604,0.05853013617690253,0.0360364595433375,0.06799959286725456,-0.037306197908399334,0.11965144880437821,0.14837777302385835,0.05298455123513156,0.05937287109542623,-0.06250470733595638,0.14411480966114412,0.08220286279239859,0.023297381301161893,-0.03565234429676743
APELA,,,,,,,,,,,,,0.02086791281164069,,,,,,,,,,,,
CD24,-0.08583508496477933,-0.04309394468715132,0.0980521531928049,0.007782591846050984,-0.00034738211996902986,0.06227096852987969,-0.03683040530139971,0.04449274745480582,0.024591271822662818,0.01384297957730154,-0.036189227976612275,0.04515207978662748,0.029797996702581177,-0.002186078353034504,0.018978349845578554,-0.09730770786900593,0.0012648607863008639,0.14425470435348042,0.04211209175658695,-0.03343056237396868,0.06539906385898131,-0.06470326487263302,0.09964761580819526,0.08748744676286267,-0.022001550067059117
HSP90AA1,-0.13770866729813547,-0.0790345681466542,0.03197595016213454,0.021180648553062616,0.06760965461800784,-0.014126115858157675,0.11081927062936849,-0.08695403588304186,-0.11815156108111641,-0.018030665135020826,-0.061174497847835727,0.10700524928625509,0.044787507305185624,-0.048841243933941784,-0.00727898348158932,0.02488038393865864,-0.02196882064993315,-0.14179730222232434,-0.015664664525066097,0.03964562046881005,-0.03444217157215911,-0.03888912073541977,-0.08964261078282228,0.09062084246419695,0.03412309120460467
BMP4,-0.06773089023377978,-0.009799314890145903,0.04863516684433549,-0.0057362705137343865,0.054093053334630124,-0.012086315415844566,-0.07068840728758886,0.10672203505891004,0.05046140476479013,0.03775351073539263,-0.010899364671091642,0.07958181761900968,0.017938885159374796,0.08779254013364872,0.087927939044027,0.030179477125574283,-0.046478453905018605,-0.0020156201321059036,-0.05259475313234777,-0.03690480368405138,0.015814376515105415,-0.008076203474594566,0.04032376213926647,-0.01734609609501916,
SCGB3A1,,,-0.01730117654690136,,-0.05384367168092457,,0.01889323720118633,0.05759146329686746,,,0.017149090280444514,-0.02364406003667314,-0.03564694488105408,0.007954688812584133,0.0073380203259176165,-0.015102971664126242,0.013825179266705876,,0.016470760055547654,0.006087462471531245,,0.038566807853966996,0.01009521918731456,-0.01681980151161978,
IGFBP4,0.07138896192098527,0.0618733187726301,0.185425702568655,-0.0295723968954937,-0.04811867837465404,-0.025321611749059853,0.024054608995180336,0.08766914144111977,0.16339293143603273,0.060287469863299914,0.009856167940265519,0.008335983726816525,-0.010309342759491157,0.09358239660521268,-0.04598754806673472,-0.039350604153857396,0.13794938060871187,0.053743048695745664,0.018656503276233364,0.02707243305257816,0.012454738071498035,0.13379877929316786,-0.031086816100462135,0.010954060734810424,0.01972098651832767
RSPO4,,0.02634070542965889,,-0.049016045398414344,,0.01043155237528061,0.04794069352537824,,,0.015713323969217832,-0.0058514869549113994,,,-0.02051151793157164,,,0.05193753557317018,,,,,0.014214682077706538,-0.023499005479412576,-0.01988782093544594,
LEFTY2,-0.06516205650333995,0.06717342570554603,0.3168639584322081,0.05793671526061326,-0.017707401541247714,-0.049590976272058884,0.028140224341233398,0.05407656323814064,0.09312098955105211,0.044541585765322425,0.009076644659180486,-0.020079294456369187,0.1428863739369999,0.009745535182878802,-0.014464402396440063,-0.06131575813094103,,0.0800482036950706,0.01450111376074126,0.029727611859117507,0.11217637811871994,-0.11728454657550283,0.05852225293348384,0.06081168205375583,
PF4,,,0.0024075993251721018,-0.03440791549299875,,-0.022159854161260466,,,,,,,,,,,,,,-0.00994746233372193,,,0.0010789893751770709,-0.024876340382247,
ANGPTL2,-0.0315111439551842,0.049143223903032544,0.123704262310997,-0.04823127293399749,0.038082452003650666,-0.00245154153510791,-0.011748875407465106,0.07333782786925495,0.12084439608771629,0.009118915446101612,-0.003135356778119603,-0.01666908131255404,-0.030817176884190584,-0.0036873288945299034,0.11858022524622142,-0.06367998546773516,0.09469978678496936,0.017229461618825673,-0.018099147684781384,-0.0025491025076212967,0.06150600671185825,0.21453112204711253,0.16223399516810036,0.1200502944200838,-0.0712521308653343
LRIG2,0.01629581283101965,-0.01414330430599959,0.04000955962154977,-0.014038890785690658,0.02233069070518581,0.053105216927849995,-0.02656085420227643,0.12396789344434711,0.08422057702450084,0.029352273057625937,0.031742415374892315,0.02850824585583273,-0.03142819562661217,0.0655560055109644,0.02009372874402935,0.0518192621208442,-0.00954646962775508,0.07767711262086915,-0.00406264470700195,0.04962198508761446,0.013184896821927536,0.001993425783563613,0.17698416418922897,0.12359944893020547,0.04475758497851601
ICOSLG,-0.015353314326061365,0.10129174174986501,0.112065042407672,0.0028392068530942445,-0.03534192294129813,0.058857712681923455,0.032063336316284774,0.011918099553095123,0.11979822150224882,0.004495593150453759,0.004053633306676921,-0.11098163760061919,-0.016295532984170632,-0.029673797139535753,0.07241396436502606,0.024226840547871307,0.05211139007061434,0.08958603712803476,-0.0040043902850061715,0.026573794679020817,-0.029109816457125546,0.06817948231218394,0.06699301893909114,0.14895897488336737,0.017100475322899364
WIF1,,0.06505196668498965,-0.09325501111102588,,0.04003582425660062,,-0.010214886846308953,-0.02350381333625589,0.04024455710577675,-0.02408434166836792,0.051015995636555095,0.17588341851705047,,-0.00990104753210387,,,,,,,,-0.10132173988261585,,0.025628450446087067,0.03431556455506855
NPPC,0.13967829710930493,0.06153829876646275,-0.08454564055654155,,0.044981661775009216,0.03231917092836491,-0.011587742681798272,0.037424750623669394,-0.06728487720553436,-0.02733967042959936,0.01750621699752112,0.007368843955269673,,0.05270589881713039,-0.08330187227848843,-0.03262536505762187,-0.049240001030481914,0.05578298315899533,0.08087735267497949,-0.026699020535658733,0.04207076289198536,-0.08056973105865062,,-0.06977829633570272,0.10281296147916553
LYZ,-0.13415276536001297,-0.06566063806204067,0.19395549499735973,-0.0272696343312474,0.029057212483362155,-0.060117984990004474,0.056982950085586855,0.08314165333023754,0.10881572223288996,-0.03947136476312391,-0.007450750816185074,-0.030371312802561324,0.012075008146621108,0.07876933788408032,0.10690497497570194,0.09803507129900456,0.08111564956036571,-0.009985942946973969,0.044347570409044565,0.04969856701834957,0.07644500934776004,-0.02881558992877768,-0.03324927013655062,-0.06295842064207742,-0.022722605457137453
EREG,,,,,0.04906925004837121,,0.04494979133322043,,,,,0.005854388934721613,-0.022512187314962084,,,,,,0.08420345156372998,0.055079660978740834,,-0.03597485976650601,0.0015521801223727556,-0.036118243641674735,
SPTAN1,0.09296454722649408,0.05696636144747175,-0.13254182801526523,-0.002687088805504268,-0.049649272420856934,-0.11148996172951077,0.053657765862424614,0.0071802740008855585,-0.013175854895857963,0.02103654443074325,0.03385589058719288,0.1285160990399552,0.02559853278826633,-0.0665877557642175,0.021286260370877004,0.10388686058611239,0.028632685469621215,0.05975980491004583,0.005208053466140261,-0.0695251754382044,0.030706438551396077,-0.10289000910811137,-0.07870645452846171,-0.03730049393349659,0.09439561698075369
PTH2,,,,,,,,,,,,,,,,,,,,,,-0.007752481347268286,,,
LIPC,-0.012813082097956417,0.044456733274172315,-0.02122917154802585,0.01811379875129205,,-0.030101065794753766,0.03696125790068652,-0.01738164216556369,0.0795036454784616,-0.013694317735862367,,-0.049027032605753376,-0.0005627370679578574,0.01704876207080975,0.08119009250971163,0.11661532731360731,0.04595893598512621,0.01417882835985447,,,0.027406965296358634,,0.032396591722582,-0.03154207887579838,
COL8A1,-0.09396989151991841,0.05595035927681067,0.291922688920863,0.03915819686637017,-0.002552840873629773,0.027861265563404274,0.016724288545414547,0.047274743827429334,0.04389582922655118,0.001636368233082202,0.05141220125712953,0.03831705799427852,-0.009566159016097328,0.008217602106450499,-0.02842761419385247,-0.026345168597570006,0.057649881119371756,0.09216277668184263,0.014910871901073298,0.045058894974567304,0.03726841737632962,0.0006178377132536372,0.045127964950751526,0.012710624445011783,
GSTM2,0.07493025950032986,0.05459319491089278,0.025037892411132426,0.008097969074622133,0.009225842359463873,0.003269502803057995,0.028548528053745605,0.05926849409153492,0.11576750517364442,0.03792867628464463,-0.03645606774067687,-0.0255797789673509,0.09858767905964556,0.017230816578202166,-0.08659207245804751,0.025898785736377467,-0.0250418021194826,0.0649851090477269,-0.017587296797760665,-0.0161573548542391,0.05380914378578054,-0.05815312905163137,0.07240837150679313,0.02784588788026463,
IL4,,,,,,,,,,,,,,,,0.06541780236253751,,,,,,,,,
SPX,-0.010569999716348885,0.029372051205230985,-0.09682773577757171,0.008832480236292652,,-0.0023157534095691124,0.15893571210589535,-0.01893057614197004,-0.013536017079458333,0.04177164974963791,-0.0210097846148954,-0.07495568220761764,,-0.010480551914139555,-0.061733154389284346,,,0.013450439375882119,0.0696415879250481,-0.02688005684744111,-0.06172991743441835,-0.2296866693892352,-0.04373284464561121,-0.10709175470648019,-0.07610379871634049
MFGE8,0.09391500330907711,0.0643237204826643,0.146564677990258,0.03911645115396323,0.03131602222950643,0.020039014722544615,-0.009733545373670424,0.04208023149831872,0.0400343037435486,0.03531988923430644,-0.024119008728949256,0.03346321771422804,-0.08900372564891341,0.017031057956165715,0.11515285069772552,0.008063518484923121,0.07657423171774493,-0.0002074541929629293,-0.10205307677998213,-0.039328763584893435,0.01260424369254684,0.04487178652324321,0.06311522196279894,0.07707808194931923,-0.03155911853395525
TGFA,-0.0752269899912088,-0.04386443040149008,-0.11113298274278906,0.018291239011494254,0.11279280107164621,0.0446471875235672,-0.10170477632515784,0.11018962829323675,0.03425837155069528,-0.0263078182395158,-0.04837375210213396,-0.07481363743606198,-0.016696757158199606,-0.011859995090840025,0.08099522580628384,0.15493140963264326,0.10462710538723484,0.0057214492337609125,0.060208604226999196,0.06469598613341548,-0.06858366860662461,-0.016999408453541132,0.16135676298936524,0.07236795050961796,0.006265175744780163
SLIT2,-0.06773087939582162,0.08193066121310912,0.214181474474599,-0.02286352982724541,-0.0018702560567827988,0.027761404189048204,0.08255344905798714,0.05265359340471089,0.032310069525337354,0.05691594820322607,0.024050792320642403,0.1370043214470962,0.007343380164699894,0.006161138483623555,0.0489277818034118,-0.0050796998510345345,0.14224169998712888,0.03099387223713305,0.13112596006556101,0.03203051627150044,0.03065374781556169,0.1093209019908829,0.07466307295516608,0.16285032658483292,0.033916519771178114
PLTP,0.09686939444008676,0.0020010615416714904,0.011266478383434466,-0.029861840071247082,-0.03730757887400798,-0.08830556272825857,0.08442338298458697,0.06423728135328372,0.15796084384147216,-0.015360078808738327,-0.08687802391691647,-0.05454892963116543,0.01867493165004611,0.03450515512082757,0.03266579550894555,-0.0098360672064665,0.03259510899880985,0.13158056545253816,0.026803490332590985,0.09979699788711505,0.032575530030582604,-0.017920682857959898,-0.15455376421455905,-0.01695711632476009,-0.09664969087788232
APOD,-0.14546068715557706,0.04344116623727153,-0.15997643532169992,0.030695362561810876,-0.03841313609397472,-0.02069438452678875,-0.07578346633273841,-0.1622224826509325,-0.049356538318869846,-0.029494938998877545,-0.02952420892054193,-0.17786017131060808,-0.02547077626887398,-0.08706742480438653,-0.24061900101460781,0.05358710145433601,0.045906632424803855,-0.16474241432155065,-0.07086971625613617,-0.13823595900076047,-0.07288946723657902,0.11383961371485127,-0.25258329318703976,-0.1570166201519916,-0.05129433872474019
B2M,0.0034427538701589967,0.104979434366024,0.4072923597103743,-0.011667087691654806,-0.060569149645574534,-0.060919340717168285,0.07067936470131685,-0.01797988428223903,0.13583693034842975,-0.04424163927345888,-0.0019130077267387464,-0.0780048853469693,0.05111995710676325,0.03737768419699402,0.11690994149854957,-0.05274886597867509,0.1973304052824599,0.07622441217604721,0.14604175102442588,0.1306629711004714,0.05712513480483276,0.04940352380040007,-0.1382835480370844,0.04659901499988792,-0.039800593002703735
OMG,-0.06928176988817542,0.03600863383963264,-0.24535317650894806,0.042376676682319626,-0.0199266958795538,-0.027376468724017583,0.007546644111851672,-0.004912409140209757,-0.1476349659515557,0.0027572171004890595,-0.021012862385286206,-0.09184288092916962,-0.014257091917316585,-0.0073567744007011805,-0.07723231117950767,0.10441468722428482,-0.0634994305888748,-0.13249069014459192,-0.10568453812872616,-0.10038957724378393,-0.08626939419411714,-0.13456242160749282,0.022953434727412073,-0.022138603113464175,-0.11014505644083902
CXCL3,-0.05299922890163163,0.11492292863868875,0.06457897705600579,-0.023916159345462196,0.0023470382266909118,0.1790568729270892,-0.03736235625081938,,0.05554782650163917,0.006904113305793518,-0.029049629524274367,0.00802112348614809,0.037217123674631786,-0.030153995533514548,0.0876099130628327,0.0251640267766795,,,0.11336167014888342,0.0365492343926512,0.02746845632392015,-0.035485144439457925,0.005546009715201406,0.08137206811461756,
CXCL10,0.12449185080214116,0.10635819891316016,0.07733643524327925,-0.016093589599062666,,-0.004515707776171523,0.02932616049053544,-0.0007521157845286563,0.14468501484595728,-0.04900878201689258,-0.01563349960537745,-0.05867917355027153,-0.019426748253352093,-0.025505551766560393,0.016727993317316874,-0.007453808291867559,0.09082340327591772,0.15945170325822033,0.05018587219317412,0.009718328395585674,-0.0525280405242223,0.030128554616304638,0.02713106284652655,-0.05166082899040161,
RSPO3,,,0.004704218352602157,,0.04123774516509171,0.003617656411139616,0.11026318525229307,-0.05125392874742785,0.01769407899665562,0.011777309172631409,0.03386205191154914,0.013264466270261012,,0.024894894275964304,,,,,0.011146478951872957,-0.05867441502402836,,-0.04713910332598116,0.010759873047917696,-0.009453814674205831,0.021117328487329456
CORT,-0.010751320338803197,-0.03339077775915037,0.0656459265511386,0.042784007310589754,0.06739231549245964,0.02030412180563248,0.04595602089370506,0.011649639281008818,-0.034351946519592225,0.022371888126018775,-0.02597577603592851,-0.024211691312601185,,-0.04606476821838984,,,,,0.007619382453632734,-0.038415316834582325,,-0.08007665243346998,,,0.14781168586786533
NCAN,-0.04911503742644767,0.06326566998214997,-0.09573457893703108,-0.020767696247903752,0.05763130475415117,-0.08754584461186003,0.10574757019780971,0.03501590239726865,0.007483653829122509,-0.004287891308102473,-0.02078491560618519,0.11754003035163609,,-0.04142865502514522,-0.22731258257019654,-0.03605967298277689,0.14635584707175525,0.04748888451847276,-0.10787195783526751,-0.1626298894411811,0.07807536800442784,-0.09145359782133847,0.13697036293796572,-0.055232300653852325,0.0719311941192429
PRG4,,-0.01847535558959019,0.08359859009030118,,-0.0556027654305184,0.022356630314743924,0.10848721187453148,,0.058011848937407705,-0.03996753663845977,,,,-0.03684080118815941,,,,,0.039132158113885096,0.02594507013321308,,0.10922742726975387,-0.016880615829970805,-0.025408531466950702,
ZG16B,,,0.010986364481394038,0.03666631631364485,,-0.02784751407828461,,,0.014217625359161825,0.02102544065504093,,,-0.025396859833233646,,,,,0.05974304529507438,,,,,0.029582260828834896,-0.034024969183171695,
TGM2,0.08332471232112322,0.11614020334104834,0.23219607900777953,0.006771859343074995,0.017720796194833965,0.03313793112968812,0.058342351016225,0.02026980897547494,0.09020800396659535,-0.0012727350391066486,-0.05899685231175134,-0.007639518122107303,0.03291698073153583,-0.04156710793993585,0.009183167102574198,0.13700130089828255,0.09335779203069532,0.06293134042120851,0.014367215094909553,0.06042440250964201,-0.017829548969400925,0.05425827790970973,-0.018444782613673848,-0.04322606942662698,-0.004488131649938591
VEGFC,0.02375136251681956,0.0906956410216376,-0.006918035816724737,0.033697028736318545,0.0676154333048732,0.0015070308388741224,0.015989450061113727,0.0033329549592532688,0.05269163253411242,0.04635833950072267,-0.014777630631102085,0.027695384153235136,-0.031631469117037084,-0.00912528488987471,-0.017584184432984946,-0.07503262086524687,0.04005933140570146,0.09113731396225244,-0.012499158962642259,0.016380181443798596,-0.0016798230644346744,0.01699410764653232,-0.014161726130202508,0.04355091043872884,
WNT6,,0.03812532716237023,0.04797634440362162,-0.0014646305833919907,0.03104018091829057,-0.009035961238656968,-0.0038018419364304226,-0.048069651675235456,0.06459691752998363,-0.015360071478268343,,,-0.001935534935096984,-0.03281320474971247,,0.02247666742961608,,-0.022267351728433936,0.06035182585885646,-0.020367119916614076,,-0.0055412326862438275,0.024983635841290673,-0.030179888518935518,
NRG4,,-0.012353182586066646,-0.029298567962035477,,0.06499986822267621,0.03988546863058305,-0.03142077949721457,0.03261056660668589,-0.030096239545225393,-0.0007380092600806476,0.07126291368390572,0.01139752174511352,,0.014303202585704285,,,0.042351871485844225,,,,-0.028445291346120137,0.13127133060530743,0.09457275425627973,0.010647067136547932,
PMCH,,,-0.0297830872962454,,,0.04268447286886366,,,,0.036092280518512446,,,,,,,,,0.009908057926467307,-0.002092143832788418,,0.016906051707717303,0.033192264059329055,-0.0006295700500717684,
COL9A1,0.07633864348309018,0.08761037695934787,0.06302396310480467,0.030062575353249393,0.11498159839746096,0.049270878817839925,-0.021205660967676208,0.11571210383617343,0.04253816303247144,-0.024098716583517307,-0.023048544592574726,0.08060186047461168,,-0.028814687810688164,-0.013505967532395788,-0.024985195913378225,0.06629192474009239,0.10714294855148265,-0.04900567567587684,-0.07138713843551128,0.06696958496977187,-0.028242260827836565,0.11133198105346809,0.055415967914940086,-0.04067954975456717
GDF11,0.021129744476060613,0.03856152528292103,-0.03296318049850457,0.05734044528073526,-0.06555828609181916,0.019740156590227428,-0.041983151639300595,0.09005439715703246,0.08238866759160782,0.025163007567457617,-0.009819055725330207,-0.035130635102951294,0.01912028042702962,0.00845518294557261,0.0400725738510111,-0.004189472065132609,0.03261871739842201,-0.038521385283155324,-0.018929518088738634,0.0050051223822304095,0.01719566909025676,0.014422984281836004,0.1149965036034602,0.014656774951050585,-0.018554460582503516
RAET1E,,,,,,,,,,,,,,,,,,,,,,,-0.004799084233900864,,
IL24,,,,,,,,,,,,,-0.016015172868292054,,,,,,-0.001804697522382606,-0.04632352251894026,,,,0.0809821919811543,
SORBS1,-0.06837334281440251,0.01304212448789146,0.11166363139242012,0.0025913768867800364,-0.08099099351025765,-0.017677962034293903,0.03175909291211634,0.014686838290477058,0.016345345959747785,0.010278269351097174,-0.02102961852250051,0.020355416828116216,0.11124601224078341,0.002600839512720489,0.0027821630547180203,0.00803736391358245,-0.010337642770689144,-0.009385745024966526,-0.016924535268269827,0.13090122894722309,-0.03291667007725177,0.17798704478398789,0.06045185473701169,-0.09093161075763354,0.06391145204414984
DLL1,-0.0012889358606710231,0.11087729337132458,0.015774040869134285,-0.012955503367607844,0.10112747172547416,-0.015980472201117087,-0.02263014001685676,0.05831805214634169,0.03332155751644173,0.035529062683362866,0.06414189943410126,-0.03436051469760813,-0.02664434187149609,-0.029426597986034076,0.07777008330164255,-0.019662998555450027,0.05608900079902195,0.002963925080013853,-0.0949615882444632,-0.07418826416439908,-0.008497284321344676,-0.0026126728764060037,0.021129556879635206,0.1457790244298767,0.1449835896835834
TLN1,-0.045732656491235375,-0.019063445054295237,0.18686612303812924,0.03823363361030786,0.07327478410944879,-0.0016071939552321551,-0.09190796126374744,0.06850092049988904,0.05857164208251074,-0.03895628674832977,-0.006719641617829284,-0.07087172929475341,0.027633384979875667,-0.03980332495470969,0.06802846125785776,0.10622354828131564,0.057737914153316285,0.07858053943436118,0.1265337757945831,0.048212253252757485,0.05331055453587768,0.121288319291122,0.024354699592490005,0.1641730700645977,-0.07315593236024508
COL2A1,0.031889435814886874,0.04953056270362273,-0.058207737032083734,,,,0.010919443142430844,0.13666249022041546,0.030015292551892597,,,,,-0.03061249617275547,,,,,0.0856593227296061,0.022481983425392434,,-0.01229452118478842,0.014429676259048169,0.06638545458391325,
SHH,,,,,,0.032255158643721964,0.010150143600608312,0.011639195144747138,0.11594856625720755,-0.007519345433414708,0.006934108029114266,,,0.06072917696744115,0.09830360537257957,0.05276416563078173,,,0.015154740702591703,0.061899966570440154,0.038392240214606674,0.01866684917338651,0.15156994916799846,0.0606083125687789,
PON2,0.054519201433210006,0.09311379346988598,-0.10683328931215115,0.006925249145408822,-0.010361260528863728,-0.11030245470474258,-0.05563897815585854,-0.01609154518804471,0.0335069989235038,-0.04911186541258492,-0.011800993568115153,-0.020831462074072618,0.04212181394178867,-0.05481938045542098,0.04815173932991542,-0.05272365214466759,-0.0335868575910826,0.04790056397032999,0.08064171737246664,-0.017671663379835775,0.09106006743864939,-0.14739211063019544,-0.020207330537011268,-0.008684284907638522,-0.11713604834109709
ICAM5,,0.1226225517085302,0.00283055747369616,0.03292274236308837,0.0032153682357237974,0.021139866538685343,0.12880878118704528,-0.02519554563435001,0.0017440233763460996,0.0056416065325654114,0.026851539288075862,0.07102273153025206,-0.01516032888370531,0.016146441793246025,,,,,0.05952555467510081,-0.011007181520414234,,-0.07068652573195623,0.053178591004996244,-0.008337703591230317,-0.029556580765795655
HPX,-0.010714700077261809,0.005482043207571815,0.01858141711796667,,-0.10434991018260495,-0.00010923362146520428,0.021887254513695067,-0.02356989433171928,0.07665934981611816,-0.021490293738227313,-0.004244457326519175,,-0.030102514127785036,-0.01406584896797203,0.009554252896637357,0.14060605989394132,0.10231201307152345,0.1039362939665854,0.049159316473345704,0.06720677365330542,0.05831332274642474,0.048807967418714154,0.05672362331106364,0.0867369442839895,
SFRP2,,0.078264388516449,0.10250040113121058,,,0.04996805482676186,,-0.004050738492896043,-0.02308434534334364,0.005125961448167468,-0.027266803768354834,0.07730718165646253,0.03329275423529291,-0.011694690493981023,-0.029257681946215478,0.050734243266209,,0.01248561856993021,0.1020130008807762,0.15683992155633927,-0.02229672225096515,0.22109464873037035,0.03778222564201075,0.07887016211729002,0.08392575414433551
CFC1,,,,,,,,-0.04798073587570113,,-0.022841885888226388,,0.011739137266886595,,,,,,,,,,,,-0.06409694752747776,
CD70,,,0.09037501275953064,,,0.07775265106422019,,,,0.021731270383626943,,,-0.032489376543011546,,,,-0.039322194761315446,,0.13609357927806223,0.039361493812763805,,0.03218760472373208,0.015170460835348813,0.039773992925404275,
HP,-0.05634561950919702,0.054959653278698145,0.009080905356949888,,-0.08519691364172065,-0.0026384062544123374,0.09899745384890289,,0.10250228792263665,-0.028509775940596654,0.015459039785323756,0.09548869413942218,,0.055890490049915226,0.0571168685187582,-0.03185144856080716,0.04461082784591304,0.10636549314969469,0.17293145170931037,0.06244624127261524,0.025032898963406693,0.030748381409536403,0.09537887181550089,0.05962553727083352,
CXCL2,-0.07719039582501296,0.15422212650674375,-0.06911908019446324,0.037759333856069416,-0.004883938624541693,0.08433773438825744,0.003324265517304757,0.02592844184376385,0.0030344405533742867,-0.0032477285460482115,0.0007844848079278619,0.014594668361989123,0.04281217650465064,0.01775191741777967,-0.10407065029855346,0.061223600457665055,0.054430254583547846,,0.17248499694723687,0.08135768698938883,0.00996921207898118,-0.038425953360354974,0.08026798782765163,0.028996460497719336,0.0068458157771143025
NPPB,,,0.06835678271220774,,0.09755278695985614,0.16533880935594258,,,,0.048678838450519284,,,,-0.037597508816391366,,,,,0.0414663204349128,0.06680982878829905,,0.02657446579064366,0.01245875129083681,,
CCK,0.12585221129749305,0.016938096612069704,-0.2312472657995936,0.021395817022289047,0.026354082190354525,-0.010490967126938979,0.13079270805877424,-0.029782713083541242,-0.07452346039852427,0.051852439325241015,0.037852731245690406,0.11928955651119044,,-0.015145959398457327,0.07674970029755107,,,-0.05141309392644664,-0.04288769597616242,-0.1007902567988389,-0.006094214009098642,-0.22991094508389934,0.005623333507305453,-0.12199694761803252,0.0777177213392978
SEMA6A,0.04215620290141414,0.05219193953053565,-0.04780054699702878,0.03911326779568657,-0.016750210646549385,-0.10829691247925069,0.03755937660987378,0.06850908507398606,0.004290453311697263,-0.04021997745382398,0.003362061292140134,-0.07721258759198142,-0.013511665809600957,0.006428743919067685,0.08108195002923901,0.03998874603551293,-0.05025273007668397,0.046104656004925554,-0.0005637911715839576,-0.02390446195131305,0.060450983131269176,-0.09655517403604744,0.08715820660082531,0.19793093855859428,0.026277508973619013
IRAK4,-0.05128740567715246,-0.04125764990150713,0.09986731654449428,-0.005272693825934593,0.05211374944663939,-0.05520908429636043,0.02807161533330203,0.0496161956661549,0.12290855001972882,0.02819251683874601,0.03867587488855374,-0.016519513056307805,0.024330711482483145,0.03230635452430146,0.07781954865191104,-0.05760230690312093,0.08416425164284605,-0.09133959024360323,0.057573370037476965,0.04794287386463161,0.025306139605357564,0.0773369309333916,0.12433300317292502,0.10919882641961277,0.057597968812731826
GSTP1,0.07618675664479724,0.032525087194363915,-0.1602779184314614,-0.013284332862587655,-0.023041027439906766,-0.004116538348125906,-0.0693385181993887,0.0741066449078776,0.057351853390879184,-0.0022826938940382815,-0.012729945115632121,-0.09566455022832718,-0.00441781069067992,-0.004577905912082858,0.0270801299990445,0.022586654813973817,0.029536093512745214,-0.09084656616455306,0.0876145779468495,0.05855975308935179,0.0411151462201606,0.05003220256748981,0.07318578495422749,0.09252964590600966,0.07031764182275387
VCAM1,-0.03219048345411914,0.06848281857532597,0.2345565273825903,-0.023933044397578075,-0.017164500809479184,-0.049254047180428445,0.04139429787929435,0.025467394103073814,0.15164877608934108,-0.029031884984416723,0.02202878986575176,-0.019920626645425286,-0.08647191074168885,-0.01595161419994271,0.006802560392408585,0.010569906435781103,0.09757143386650373,0.1058143050440301,0.0718205003364446,0.015427105107422453,0.0340944515803095,0.020903671222761377,0.007900878930915059,-0.010837873301301537,0.18302141773153746
NXPH3,-0.01672354485563713,0.07948705309803149,-0.0009733175832006923,-0.008989873123597144,0.07307803142670191,0.047599298851289,-0.04165984519312216,0.029565105444308466,0.020167290107820732,0.023272092268508092,0.011465623213261682,-0.009164476540754368,0.04536193870284529,-0.07751896028636152,0.08939205871387265,-0.026909981244669465,0.07145113184355434,0.11776155497560536,0.02201490719133959,0.06297979438069418,-0.05501246227704155,-0.06879045199152255,0.10782019911916184,-0.0164324244721644,-0.040154584720047515
MTMR4,0.013112611039516529,-0.017095020276317263,-0.0021900092779545553,-0.040597742033866686,0.03501423637047446,0.07241256509863542,-0.016276061578427287,0.01882339271889798,0.05999615835727541,-0.06990245027625996,0.03932749850319946,0.04069446563758024,-0.03950603660541402,0.0006695859825724357,0.1294562736190795,0.07836602984138699,0.10428763226006121,0.02353914289524371,0.029845012996344313,0.041555149184899796,0.016056016092031954,0.015725192623978045,0.10944464905757455,0.1322923376864791,0.09181581645043031
LAMC2,,0.05136991587653363,0.016134750044659085,,,0.07768990916260535,,0.010044630655341934,,0.03386880862560806,,,-0.023262767703624343,,,,0.003970430541304931,,-0.05768604000929473,-0.0243650609659521,0.03826145628435746,0.011646032183310066,0.06675336285976256,-0.0061343183699982895,
IL10,0.0419833442452401,0.0241813355356769,0.02164624227271361,0.030603261951886142,0.017751704550400888,0.03132725856175077,-0.0012924227937541036,,0.08954569810833128,-0.04205987522821136,,0.04001803637936481,0.046447285197139816,-0.033655115653121265,-0.014239636588762136,0.004102304507259063,0.048437571744209616,0.03362456417414975,0.012226136920079437,-0.006897503642441975,0.12376621417091123,0.05654719382041626,0.002189247696356007,0.009777281660024655,
SEMA4D,-0.04634365105069084,0.044801194135733545,0.026907835225360412,-0.005406924746128393,0.006639498957314748,0.024822787879234462,-0.03784603728407954,0.0006878398477986351,-0.06597043058695738,0.021324573403338182,-0.015344996986521841,-0.10523548463583546,-0.027305428982325918,-0.07350117054671927,-0.06408916181278478,0.04232177403440569,0.07304218966844817,-0.005437927018549523,-0.07210189475027165,-0.0755055035470089,-0.06275348773577154,-0.14525243984115332,0.068298138006396,0.0261720697905152,-0.0024464810306476436
TRH,-0.060428764501384485,-0.013830243902687715,0.2523800094805938,,-0.002445789995732573,0.06974281232600453,0.11216410416881759,0.024361953317618066,0.06519452420628331,-0.018227920269879187,,-0.0031178390637911944,,0.013530778526226141,0.011249354089762714,0.0005580046807076363,,,-0.07794443018716185,0.023541878515044676,0.191886237074005,0.005014572483038216,0.08460258093201098,0.1805353945181438,
SEMA6D,0.049162522560881425,0.06816058665774334,-0.09145804692204257,0.044028991592800035,-0.04503674819354572,-0.050530374393973156,0.056442134613239985,0.052816347303993705,0.04889737065033746,0.00291969203869722,-0.010383034453074232,0.057028213802868204,0.17433609878064893,0.058641751800974765,0.11222558533218949,-0.046359291784393304,-0.013892723502607734,0.009915520614524198,0.034558400989230735,0.04508999968628573,-0.01778540821233596,0.06712780587904578,0.15506345904836297,0.15011470066337781,0.011855345771248516
CEL,,,,,0.057004781193580246,,0.060461561427114285,,,,,,,,,-0.03289236485930801,0.1314592574490733,0.04119362546477204,0.06813466477159512,-0.02061003591133072,-0.01748567684726784,0.039866945185600834,0.029932798078196377,0.11293352115532347,
PDCD1LG2,0.023465468719945187,0.0779342163346674,0.08989937362346295,-0.0055684636773281745,-0.05019980052430407,0.007925995280007429,0.037918764392991654,-0.020583368996389694,0.067419357770315,0.025912725963533403,0.01790819518339855,-0.0020081392599138777,0.04739361570361898,0.04445062629163369,0.0071088944190604375,0.010375892128553922,-0.0097700603073648,0.01416476041725453,0.01525224399698954,0.10092139197451289,0.02526027466380919,-0.02311437308386915,0.08184412669841215,0.057418206482732555,
SPINT1,-0.006528401107627191,-0.052753152386113944,0.11594333659031818,-0.007642135345216916,-0.01559516996174818,0.042280759336164195,0.11663792858209546,0.021648779145385266,0.06420669939127012,-0.009801780935219355,0.05000082939303969,0.00029313083489806513,0.01761281929131892,-0.013815172266022966,0.027569557360212684,-0.0012516050679500822,0.09968962909721817,0.16708675512452897,0.0175687066626742,0.026558061935606347,0.007671143021732226,-0.03631438129361182,0.09053184822012067,0.007618526726512841,
CTHRC1,0.0049645414481113564,0.09824893861998335,0.10229992974849492,-0.05744020948927046,-0.00866083625253548,0.032095543986616085,0.05111941554987954,0.052249262477343,0.05856647686062593,0.02567587640800903,-0.03448137031049297,0.004464291982555067,-0.011547298892413994,0.025225472226336407,0.04131799233813526,-0.0695145306848847,0.16087576252636032,0.14305581620987642,-0.044629314315494675,-0.009167929576373354,0.08654709653730674,0.08312174683333313,0.0049455431051407504,0.02431538036699086,0.06942371458588835
PODXL,0.0368546056863582,0.13522835149292822,0.23443629273086938,0.04352566006672152,0.003254523430289078,-0.14221334026488172,-0.014303577378214543,0.04730719523199252,0.2053838822032436,-0.0471198963568841,0.035036923385951366,0.06253369704810907,0.03394878696256122,0.01620359992550701,0.07868331713956753,-0.03266503156507509,0.06903876675229288,0.09745388266958785,0.06735488427493362,0.15051772118378365,0.045743793787508535,0.12322323759825483,0.08805241582776298,0.14395658354830818,0.23369761816838353
JAM3,-0.08600833025293517,0.02061804964327401,0.12582862170515569,0.011580519258117471,0.06363781481298665,-0.023768570540121232,0.03760453934699297,0.04690957379467258,0.04946555187300601,0.006025654284329681,0.04839810577210002,-0.15635600025894755,-0.006693906351181732,-0.03825358328944835,-0.028270492879853646,-0.00859923807680129,0.13657339954262668,-0.11994285592245016,0.19331429713642626,0.09272414680542898,-0.03372772260378946,0.1959716006202933,0.04967104997114911,0.07939084226084477,-0.05507355961738332
TGFB2,-0.072996215946417,-0.014984484735398658,0.27256804396992873,0.021530710509440956,-0.06090034447106535,-0.027699882246247,0.13445863953751558,-0.01114785459088906,0.20291250376817724,-0.0010270895937444747,-0.025026230369547344,0.01638272270347692,0.05507873985971436,0.012920070026188467,0.08372180077460178,-0.1137027058733961,-0.035556634003969696,0.19988338270289688,0.020547025667960156,-0.035500333145165305,0.045308869069512384,-0.15168639323066155,-0.02613274966409327,0.06297040601024674,0.015198769212157194
COL18A1,0.05879787773588406,0.08316338158475793,0.20547174659582976,-0.0011005815002175128,-0.03423070825644955,-0.06767541466419176,0.03367450639721284,0.060029007049664705,0.11240717823314719,-0.016995030590381748,0.08407658041990715,0.03991242642052639,0.03193334657458994,-0.00039590129944141816,-0.003471750692829028,-0.04676396990056997,0.0822668508288097,0.11363526395268582,0.02327185198450565,0.07945966046532507,-0.016065030695387582,0.12243409156691928,-0.06513427179569063,-0.04787989157776794,-0.03539328929705958
NODAL,-0.02282546304513724,,-0.01311640561650107,-0.017368752904359595,,-0.04252870372927657,-0.030148622755022097,0.034995378156372735,0.045059328638845444,,,,,-0.024496780381133256,0.06649464929754074,-0.13309008478316514,0.041905276400146275,0.08634966750783653,-0.012536446011853254,-0.017216288344989922,-0.05148040506168543,0.021557735341830635,0.06097750980113703,-0.04437514775667857,
INHBB,-0.038240202791075296,-0.09452568709613657,-0.004067829068104636,0.043081617712255736,0.04063186833078045,0.014899978037706974,0.06570102492127315,0.010886519019261548,0.12251864019135192,-0.01041699606321292,0.02671932224739782,-0.031755457888758554,0.0013183603743520504,0.03724671650914455,-0.07290367488861728,-0.04148726243087333,0.13042169495286712,0.08969275962193063,0.17130736539591024,0.16000034359599852,-0.020989166991714766,0.046615654676272975,0.15251183664282067,0.05145111264299438,-0.022681208438779202
LCN1,,,0.041709118625469326,,,,,,-0.017769133477768165,,,,,,0.13406369899169288,,,,0.02244585282698973,0.024773915685607915,,,0.03702425118101922,-0.021174919043729395,
ARF4,0.04272834022803397,0.043673973644171284,0.23111254110794077,0.005684516700906095,0.09412180707180967,0.057560077459062206,0.007742676110777655,0.0724209357686762,0.10204902189499121,-0.025856074302764695,-0.034209733390921565,-0.0031962401993412687,0.04003294227748648,-0.016042652639699416,0.08210701649172064,-0.12312393567257929,0.06639038335671377,0.11448478966485023,-0.024118111797608546,0.0244089959539967,0.13358905300297125,0.0930741907078632,0.09183628536142108,0.08053469487859719,-0.0053349678555222255
CXCL14,-0.0773614211876445,0.02961376543755123,0.15079763198855337,0.04160093951329062,0.014498626013782155,0.07023121977653592,0.1853902631669029,-0.0029153603550540704,0.14263193309294056,-0.02311825600197716,0.03225210709032958,0.15018537301587065,0.006126086187850922,0.0492282671280611,0.026863103844116214,-0.0628245130037667,0.08416814078148317,0.11398633509170054,0.035821621935550635,0.07745073902522838,0.09613454745529026,-0.22335495506836253,0.24726797249074933,-0.005008692913714989,0.011802679762598278
LIF,-0.014451491895561207,0.1072120389459257,0.18620233321383312,-0.008948188134702235,0.11833697908180821,0.09175408996563277,0.030408714794815408,0.016152597075102262,0.10630938021683387,0.0052279725565416366,0.014216435295604714,0.018709423311206105,-0.02510715325155285,0.07579367237757696,0.10794413451621514,0.049081297180356004,-0.026276418074406567,0.05486822929780117,0.018773214409786427,0.09462958325204374,-0.00722870009637249,0.20652471963642782,0.09992857328096401,0.19723028673473483,
IL17B,,0.017693763977574606,,,-0.02057697605047439,,,,0.009928591788657282,,,,0.03235064092047331,,0.01319115421390375,0.0017533173324148547,-0.10751925654713232,,0.01484412913544673,0.018064944300012535,,-0.07538662487365382,0.06792223519862044,0.03505397548208019,
MMP1,,,0.011179983458027083,,0.10188751925161955,,-0.021419294351410142,,,,,,-0.07266650226433582,,0.16305562300809723,-0.019397125953635626,,,-0.05917063398256215,-0.005067897889644687,,-0.008299816021417146,0.08904879475952204,0.08234455181740655,
MATN1,,0.07914840027705251,0.003828843425642718,,-0.0220431094537871,,,0.014328449492094296,0.014833419209288691,0.02846314799108183,,,-0.016015175176692122,-0.0306124923631768,,,0.07658420929856312,,-0.0005080539765631649,0.069364111028033,-0.04038838357888607,-0.019573368381775383,0.009358300942628342,0.004795911183611165,
ADAM28,-0.050690759498293714,0.022913619188644152,0.18225744814036557,0.06363703284923582,0.021684204639664292,-0.039585453488887486,0.03083167623155331,0.05306648702301789,0.08470848407568611,0.031097604803281897,-0.01510182914128316,-0.10020150342901846,-0.0027585996512236527,0.07953412242633487,0.10731822007031885,0.02964628777779093,0.038283532712182766,0.06640596007676727,0.10785808330906439,0.023390850913119463,-0.0369026010336869,-0.0648815796727257,0.05828584728587205,-0.0023079368414851854,-0.03112404556273275
TCN2,0.05318309241690555,-0.005712942789084157,0.06058849100079738,0.01949444513808351,-0.04880676265936462,0.024823079364451415,0.06925431300409166,0.13285908863137438,0.09721828570422078,0.01696029142323044,-0.05102883358812698,-0.02487573253412311,0.0449392036378445,-0.004137768766457957,-0.05972134613871965,-0.029898823438208766,0.04778421254158999,0.06471058790014449,0.046566447451146235,0.04131011807934213,-0.0071073785761479194,-0.03620046574777949,0.10260309975836086,-0.04601483888160853,-0.06557732747118705
THPO,,,0.008641088813998922,,,0.05202492123198361,,0.06146502248587306,0.0803204840722842,0.034079737166468616,-0.03349918822949001,0.018480504013489937,,-0.03061249587971091,,-0.030283531526094705,0.07303152350917179,-0.032321237945792176,,,,0.030112164120389497,-0.05362864222086005,-0.008378713592599086,
CUBN,-0.0034701140847774774,-0.011611116716677432,0.06827505167400938,-0.061980734170474346,-0.019036298159027788,-0.012342375667014,0.005183853162035844,0.015540433371387196,0.04764536899337944,0.004319639925513736,-0.024425244081880595,0.0009340405031929715,0.04614048954448524,-0.009800073304441706,0.09184578658693003,-0.028391319186773394,-0.015011548017721699,0.1595225367848212,0.05192445472806319,0.04791650793855345,0.0446104457047198,0.05457794614931439,0.11991422448786228,0.03466688190585033,
TIMP3,0.009237104229148198,0.009831363728795768,0.05937022743415309,-0.040545135211366164,0.023654575838388227,0.053372633268740734,0.09363877429466826,-0.05183059263587501,0.02666194077521646,-0.021201807349601188,-0.010394828030380065,0.07026461319897231,-0.07239621200274575,0.0443232011571395,-0.054045782752980095,-0.13162986532704643,0.12365788206525695,-0.03147745174433214,-0.11601325646613507,-0.004215597604747543,0.09824682594077865,-0.18874149853338304,-0.09659758621700085,0.060705674453844366,-0.06879705833248423
PIGF,0.050831770407472145,0.02593754013284902,0.0159056613755624,-0.003962060384975776,0.03787442998843471,0.04124248681648043,-0.006095878753508503,0.08720054951214769,0.045310399929220264,0.022623252819871664,-0.0020158270852881745,0.06132773046326285,0.04947702060348917,0.0335170298911579,0.06814187985845663,-0.009722423148510476,0.12824149336168408,0.1276966729348706,-0.040860470704037186,0.020157479727766256,0.04313654943718588,-0.008516236393322855,0.20421167314243674,0.06378469638158617,0.023098983908324513
CRH,,,0.01108399318752168,0.009697677323219491,,0.0339540465635799,0.12629877404616105,-0.0016209059506256274,-0.014647338926035695,0.018325814462843863,0.041935412767058144,-0.02270576605338248,,-0.010209945057952396,,,,,0.03183397903266452,0.030699196221330365,-0.003901631080052429,-0.09471316375151403,0.05098845652801396,0.015511863828308839,-0.047254660602059274
BDNF,,0.04370915889084942,0.07643458627341915,0.0007009412724185597,-0.016135737877568453,0.034845251733476384,0.028978129630176874,0.030945345950485093,0.007025017798278577,-0.0018564049863521823,-0.009283921429611815,0.016849962525394457,-0.024703377353614425,0.01688458915094171,0.014140058898476452,-0.08704392444771444,,,0.05124556477093121,0.0594872071186149,0.17128449836891538,0.1220795314525384,0.17412115823309163,0.11987867400453034,0.02651033065325993
CCL5,-0.0601822438359139,0.04358952861461482,0.061842044589181945,0.022310937566870637,,-0.019518386876514398,0.08810939714732646,0.007328361150639758,-0.002146256420385431,0.012696960596541157,-0.010503547124926472,0.03518337975983063,-0.0257643247696247,-0.022763110171640847,0.011085011130274203,-0.17045310654877352,0.021308172366028128,-0.01970898972355168,0.03717439110100815,-0.013990309976617377,-0.02526279721536907,0.04815952334357675,0.021945858418604046,-0.03520103243597381,
GAD1,0.026955825928343148,0.05482995846133401,-0.01837195484865297,-0.015006516005322887,0.07273797667457746,-0.004383989444079027,0.17657576558105187,-0.03490175645031104,0.013296938532354443,0.06325494635967527,0.1065444758353872,0.19507376283520655,-0.00707219020737971,-0.0025575609351642216,0.0009701177210463133,-0.04454699538592822,0.027670102736606448,0.044328007015866054,0.0502597451259854,0.03824984250214724,0.08151069020862743,0.043383924301774915,0.07517748704833448,0.05027953434054564,0.06358555957869466
COL14A1,-0.060869512818938744,0.01985294267772556,0.026245757339405283,-0.057757376655725085,-0.045973313623506505,-0.004088766335612422,0.08886069551941315,-0.018954382386100106,0.0067155842114516445,-0.043488501938411625,0.01754156151081421,0.07227220439406831,-0.017403021801313454,0.039101496337159265,-0.022473907528166633,-0.05418884299056245,0.0716945795228231,0.0704102326550816,0.09006998088486745,0.0662635369466247,-0.0007851156932459139,-0.01982328303217591,0.05283256986181152,0.04091712119522582,
HLA-A,0.10298383720999243,0.10292623274279596,0.23159550065096993,-0.013983233425533228,-0.000504418768728568,0.016835406909483153,-0.10881965452091556,0.014833680188499775,0.16786442244959432,-0.033521919269210415,-0.011824978396359077,-0.10193738897511992,-0.07339005690569841,0.10207707335227573,0.10626043181063162,0.07455453173540925,0.08650900752329774,0.08484642318560821,0.1468093565019212,0.18080002327363967,0.08856514716235532,0.1569747891832271,0.027299093046589663,0.15755917652687934,-0.13175452514122968
CD5L,-0.07030095584783345,,-0.007910326965652094,0.03599441095178656,,,,,,,,-0.015715965624378894,,,,,,-0.05535669678709273,,,,,,,
FGF18,,,0.01567425375922038,,-0.04177566030065687,0.03986103327915152,-0.04550985472250814,-0.023938254534043867,,-0.0061424007822761615,,,-0.016629054390672502,,,,,,0.03992517436830934,0.01578643187924323,,0.03695875326779566,0.05434506587201346,-0.008567403546120752,
ADM,0.04329375370799798,-0.11863775282530804,0.10936728198430888,-0.04775894171141666,0.09658596757333371,0.1524462454542869,-0.07086153432162971,0.11117215112877296,0.07914656684895237,-0.034663119452393074,-0.0038909517104578177,-0.02470917588470466,-0.049717783807068386,0.06472357975630882,0.06982791437143097,0.12111332848296216,-0.0955401890223715,0.013624945955911804,0.1681091105908621,0.14738188870800975,0.05816964791471063,0.11047536595838707,0.06736608309730313,0.07208182865082047,0.057302015629814726
CCL15,,,0.06461166176562215,,,,,,,,-0.013270945973655563,,,,0.07315448258579602,,,,,,,,0.0014753215298033183,,
GNAI2,0.05326859231258849,0.016619493508835525,0.1724268571928195,-0.015935223168966048,0.050762738934822825,-0.0779932850311969,0.004225495064679289,0.0509893337026374,0.09612077420197838,-0.009834549631580113,-0.046887096786865715,-0.031918466730315107,-0.0948742942946722,0.06353434457566692,-0.08218792750209872,-5.2582835865778366e-05,0.060401548179818194,0.10701319725992865,-0.014042820608683287,0.019490923605874958,0.05631884341131843,0.196596751545596,-0.017839525744176247,0.08242662454852694,-0.023310720875635328
HDC,,,,,,,,,0.025478751384408006,,-0.019757720012080867,,,,,,0.06045570484123932,,,,,,0.003494026771660631,0.009844539019327475,
COL11A1,-0.051115708200818066,,0.061732654713415956,-0.007305325430590754,-0.08935322020088766,0.03889329115898897,-0.050367255351301314,0.10976390334614419,0.01823791683070359,-0.03400700914301583,-0.006936871296662305,0.04875919679812876,0.005785945617678488,0.011456360465501435,0.0560258247681648,-0.005625850989073365,,-0.007402659198442947,0.14855177844921527,0.13048904152202795,0.017126989446571737,0.031126488354060667,0.08379947763290578,0.1228378507232084,0.22219819576833932
NUCB2,0.08437855854080546,-0.02014709166002182,-0.014775564887366498,0.006163810322007723,0.05878027441931371,0.08974673506449508,0.027369991028057306,0.012720729666477897,0.11046640504235623,0.0004964366466822236,0.02591963823315269,0.06913226824172913,-0.030340577951725043,0.03847798230642633,0.04798883880663235,0.023952097730778506,-0.011616994922004296,0.06466556186497838,0.05131197075918583,0.09509065552044145,-0.05403279771934424,0.01887013742156925,0.03427172324086846,0.08311574335655272,-0.004369628685843465
FGF16,,,,,,,,,,,,,,,,,,,,,,,,-0.08016055174285182,
CXCL1,,0.046868673970751715,-0.09631525207922666,-0.019674191182252974,-0.054746307711142514,0.026332318149852017,0.07802868071962915,,0.041663583550001264,-0.014797075491139462,0.0780788162508475,-0.004071361042276435,0.11178443625118982,-0.0075080723812432065,0.007047072169879292,-0.08755477498780964,-0.03408690851944229,,0.05128681989545816,0.03906686509676995,-0.024886168609988265,0.025903108359271395,0.07513346583424858,-0.028941722448956438,-0.028821768004954958
VCAN,0.0871931422513901,0.08306014877639892,0.005473274115427828,-0.007045324125681339,-0.11669765802385877,-0.10826859942760879,-0.11428468559424501,0.06552582507758084,0.08584645879918824,-0.024341572347623457,-0.031733098566504164,0.05958050881273079,0.06754625952865545,-0.014785685904335898,-0.09921078539188147,-0.07971999845134758,-0.019523501077818212,-0.07636291410082066,-0.09789857538128996,-0.0754009355643144,-0.05726219944212064,0.25252362569358955,-0.16150986250556218,0.14084907209723568,0.1011923438728389
MMP7,,-0.05445264017764652,0.2373219456044128,,,0.10653656509021366,,-0.007030594971034252,-0.017478613714351318,0.0470720718317668,-0.04902829013474793,0.021748116954990147,-0.03296569381276155,-0.01742855272714147,0.13986870613781313,0.10768076432287933,,,0.18138850087256958,0.13764469136588592,,0.15954761126489525,0.014257064656804477,0.18106609971250168,
PTPN6,-0.0321264832993417,0.03842055344023711,0.18173984640826735,0.016738064922704608,0.00218824735130266,-0.04185857227122528,0.01397328787624503,0.06135986224437041,0.0948897376851792,0.000685546401573859,-0.0013017779015767521,-0.04009549881652915,-0.0203128153902911,0.04108794353985673,0.060407670372729094,-0.011755349700070307,0.06506491860721791,0.1249441355930883,-0.05161996428548923,0.09187121752626028,0.014838000348139037,0.01636360674292373,0.07126620014801419,0.0009194723230566333,0.08959499407876344
PTGS2,0.06588739315769068,0.027018612067470027,0.1404754069539078,0.07548565985701791,0.10356574915172918,0.08940673016579814,0.0001279234611841045,0.08172535486831023,0.040963328180044424,0.05783958838179856,-0.00967170347232521,-0.016299189597857672,-0.0422013442087315,0.01520435113767953,0.024423070234235855,-0.08898333137042137,0.042215696613853715,-0.031299594798077944,0.07162862892208939,0.03967716649728168,-0.018690552625435057,0.050909379000859054,0.09721290823574144,0.08280367573089088,0.08289090562246768
XCL1,-0.05901259351275567,,-0.016793116050727162,,,-0.03815509239072807,0.08006909556572041,,,0.04395237417393405,,-0.05116260086979236,0.02068866770845576,,,,,,,,,,,-0.04310790452517623,
CD58,-0.020176255030478853,0.0285645972943932,0.1632065319185756,0.019211164990762475,-0.00011040571166664505,0.039205324870150354,0.044844847483164696,0.04121883871556506,0.13070776280355534,0.005916142110947486,0.0013506787969756874,0.05973078193504779,0.033426685463142994,0.05411830558734572,0.0943508378673891,-0.085786220715097,-0.03257525551545892,0.1215467592705346,0.01282620787541462,0.09271250488177948,-0.03131802008577461,0.03370637875381139,0.10779933933144355,0.07583853306322035,-0.003181442854364852
TNFSF14,-0.029486475418141315,-0.028049192995307386,0.013351531973188403,0.03345017884124913,0.07917025893124416,0.012226047242981208,0.04721570865748932,,-0.03206391593524923,-0.049291643173806896,-0.02977529706711848,0.0302972014161169,,,0.00925212861706707,-0.01789082921025176,,-0.0007610753108155395,0.012730952790410604,0.008618830191413586,0.04402494254958651,0.01452879077806855,0.04924806280144909,0.04429559630268387,0.0479617922121348
CNTN4,,0.09082422392774091,0.027867829795937923,-0.003673960099409948,0.03710995588835402,0.03231605783778705,0.13578971372171317,0.057230799198030126,-0.010460143900302773,-0.02770103466931323,0.02950944909367398,0.091052859888566,,-0.0032992187099104412,-0.034445307621664055,,,0.05215998441484506,-0.021504556884204627,-0.08524802169989502,0.013047163684670151,-0.0031741046219459666,0.01744186071920107,0.04918408322780793,0.06898274437194361
NTF4,,,,,,-0.028871731821840493,,,,,,,,,,,,,,,,,,,
INSL3,,,0.12316146876699913,,,0.013533861716254968,,,,0.009979022412942124,,,,,,,,,-0.005194208894107623,-0.01218761104216895,,0.009960760778331128,0.01358877174525587,,
BTLA,,,,,,0.05037309029636925,-0.016253137714821637,,,,-0.007169797499796438,,,,,,,0.07445351240965316,,,,,0.01365237653326128,,
MFNG,0.012073452152655942,0.014653939371794846,0.15703101796373595,0.03768747572705562,0.016639988482807053,-0.01688374009577884,0.04523764956549972,0.05388196330986257,0.03215382812745565,0.04205738381215258,0.03392741621435058,0.05864879640282886,-0.0057496785940211485,0.09065231327914554,-0.07695148944166715,-0.06744379726961452,0.13658296084269952,0.06555291209971008,-0.010715635286050138,0.016038730348974697,-0.049930488258973296,0.016043007152968605,0.14862962377749403,0.015211329764739046,-0.018141975255803928
ICAM1,-0.05491082683760297,0.04003316665515067,0.17520058150871598,-0.02423511500138266,0.06955754216164411,0.07357351629554139,-0.06497183193270241,0.10247201960182842,0.1339411213184805,-0.015067412724203491,-0.005946290947997538,0.014467427867548567,0.05346304796761722,0.023066775480175453,0.16649861472805397,0.07036853037006917,0.07887704208444668,0.04646048126222984,0.05584861123712294,0.11041511695183115,-0.005825476129188203,0.049335999218216034,0.20386933166248752,0.12374476411392624,-0.07311681280099037
PROS1,-0.011359145519692113,0.04945719196654581,0.24275080837022114,-0.026945474720725737,-0.020523709946829262,-0.04833472068530053,0.019282445683687702,0.03334418910175381,0.1683206995765997,-0.007179823880382792,0.025378767666193697,-0.012313060045210223,0.03399055123838417,-0.010355323896610655,0.09375334079937131,0.0049861027199973665,0.06150011412406844,0.030114528083868893,0.1807470787099271,0.1206719182023059,0.09131231846161832,-0.02035292927963067,0.14410872280675432,0.15733338116652745,0.06697900617081572
CLCF1,-0.01360253665079321,0.011942113094102595,0.25839337576325727,-0.031105439824242454,0.06199475171796596,0.06705941814037537,0.03954874310177511,0.017661184785210934,0.09746841802990668,-0.017032173363479515,0.06200464693349468,-0.03967337099694035,0.04427147520638666,0.012613304327184707,0.1082053637901302,-0.06234470055102287,0.0694172308578601,0.1449018088960293,0.033777164533342605,0.022682447176678732,0.06057020058951553,-0.021388756344018118,0.16749823154199076,0.14342644078210845,
PSAP,-0.1634532309503888,0.020489876974484705,0.3691560565924695,0.05274931030538954,-0.017332075254208747,0.007866769259419266,0.012871788952075879,-0.10840143057202006,-0.03182870678972897,0.0329637790791758,0.04072514783585579,-0.01604722392557217,-0.03689036109167037,0.024539408683498066,0.09345923947183046,0.07962264455926203,0.03300044661396915,0.17824625934701885,0.1947756401047195,0.18454365504064563,-0.008657860363977015,0.012851403887310882,0.09030032604192699,0.013989401668742234,-0.01362458966379562
EFEMP1,-0.044378849780191305,-0.019022342614584634,0.4683366815990968,0.015097654861141365,-0.08808755036091323,-0.017667434086334588,0.013668379739935578,0.02982374440781898,0.08617667305176777,-0.025282762227484695,0.005953299764634962,-0.07565439220642176,-0.027114925416807708,0.03911053698575503,0.05246910673594603,0.001115613369883758,0.096186823441443,0.14990343314247132,0.21624596632282206,0.1919905054102982,0.07203618075832896,0.15646844272772734,0.10748688221861354,0.14980494511538492,-0.08874132219223346
C1QTNF1,0.06041532146713324,-0.013861539800587767,0.183616560512772,0.06692891369025712,0.0585211537850252,-0.022911494765814642,0.006907725210289028,0.006216306037984874,0.06463430379194045,0.005423093971526651,-0.03055150717665627,0.014308548109340933,0.02557721674171827,0.06846278064281346,0.0033858625934874197,0.035122604541433365,-0.013773926516181317,0.025048619471004938,0.29650780339003413,0.27606232570401273,-0.00991800975457117,0.23373959634657776,0.17122250595237445,0.23678087935186778,0.1245799644470918
ALB,-0.0825085294845229,0.01990794322984274,0.11044481002462005,0.0014216012359859022,,0.07646725682330974,0.013253963207152848,-0.009612098828101354,0.05196038931202557,0.03950175265372526,-0.00026918849304066457,-0.02663681689651501,-0.015160333867833012,-0.024691770120675235,0.00020607101237743827,-0.05015084583669322,-0.037199795285905786,0.06388174604753506,0.004068134142970838,0.06552602221960202,-0.020603732753845486,-0.04431849496116411,0.07276128825254746,-0.0033877568203479307,-0.05097187031852758
CCL13,,,,,,,,,,,,,-0.02889405685860843,,,,,,0.030266827188880106,,,0.06144631056801437,,,
EFNA3,0.08151486200832299,-0.029728666818709264,-0.019308943662938564,0.0163286821648684,0.01260114677139648,0.12438901578264402,-0.0437955120339699,0.023111241602247888,-0.03316990773273932,0.0383912794147043,-0.0013523154160755566,0.13505232685745708,-0.013857421122919749,-0.004391376518981793,0.056068088394696576,0.0206826227957225,-0.013571897790478642,0.1119263979797309,0.03797278159668411,0.04926959023403332,0.060974939931474924,-0.04880066813564379,0.1402076696298801,0.03329079241690344,0.09006307736657639
DRAXIN,0.07116428246903161,0.0875783685603654,-0.022325913110244736,-0.013379948952362376,0.03899801510616867,-0.01890309636329485,0.0007624153119099156,0.07659999786973956,0.16944058652025584,-0.04395931251017048,0.019374161739891975,0.03777027344507385,0.00963135920406773,0.04212521880885312,0.0928477442076013,0.09996377558400896,-0.0351942017281984,0.021024509615310612,0.119091715344394,0.12173670043057978,0.055876051720479984,0.16564425576456315,0.18618097227012834,0.15152359101215873,-0.04067960065332937
RAET1L,,,0.01775437838424997,,,,,,,,-0.023545912873489862,,,,,,,,,-0.006210978075502634,,-0.04221717763775578,,,
NPTX2,-0.06459110896642442,0.07507527924939329,0.06481499706156398,0.05536986109201161,0.04139079581083691,-0.0037799158470660037,0.12842511424704278,-0.05983916862465471,-0.04371401770039187,0.06327699072088226,0.02585258765259665,0.055465515519186444,-0.01168205796326713,0.042570439366994124,0.025808933504738927,-0.009276962272649465,,-0.008853650078669137,0.08616902098827647,0.11573502446843426,0.016386339203673318,0.056362520864896244,0.07552435406689254,0.0070143964272979765,0.02859798885508231
FGF11,0.07469331388031733,-0.07484713042866954,0.051764227408458124,0.03728176134961045,0.07154932528656292,0.062008705175583725,-0.10123924158212921,0.07312119747331554,0.15431250679290653,-0.01763392021335612,-0.03517800143793373,0.009110720707526427,-0.019230661638589636,0.008336544503333213,0.07905304533704981,-0.0009139738247480279,-0.0352622659535144,0.12506557103565435,0.13897638591859207,0.20619786766592754,-0.005764796447633131,0.14243766429575253,0.1908251869087148,0.08880812704563448,0.09013722291066899
CD59,-0.11535989888480402,0.046517206254482205,0.21961026280607843,-0.050729022469416366,-0.006006127394203576,-0.12248668747431024,0.11994109757695781,-0.05655590013447148,-0.003755282226579488,0.022479486456769848,0.0655671559604817,-0.023163069824971832,-0.026522363722154114,-0.03632378134514603,0.07653667851483502,-0.03379990246546645,-0.009782495614620329,0.0797232791748356,0.022693371169283494,0.019448669734519152,0.00920313216625582,-0.06937706245099141,-0.0880562411104759,-0.014301291313346025,0.029124420553592868
COL9A2,0.03445912034379118,0.041741860102674264,-0.04123131687760608,0.04443316231316627,0.009425879940848364,-0.014894690589739554,-0.01582936069747708,0.019699274677411772,0.021015903477941175,0.033831394726054606,0.05343204379079355,-0.07551264129137147,0.04925699405164516,0.03907828499059571,0.047966200988484566,0.055757132981630035,0.10125868404554902,0.1370614575367118,-0.1296104864703084,-0.1246870010999344,-0.006605807109397268,-0.080559532110026,-0.012884125752979751,0.040157536749287695,-0.02095215311787413
DLL3,-0.08220818074758705,0.07775513680632824,-0.23930152593481635,-0.010435737038167086,-0.003959352656680363,-0.10016184154750098,-0.002997336709810879,0.10836306294447669,0.05772310961934564,0.004822317210639338,0.05050590629091074,0.11806426801807554,-0.01942674950709743,-0.07284726526577208,-0.028516560370295856,0.034986032666038704,0.026872867402653232,-0.07018332081555544,-0.14445353472650377,-0.16942734679285082,-0.03889941044493076,-0.1737817549344381,0.0532909370242863,0.15267955915523385,-0.08556891881736843
FGF5,,,,,,,,,0.0182110755588807,,,0.08863837472463171,-0.0365756074664623,,,,,,,,,,0.017821744280181257,0.021075727205793267,
LIN7C,0.0005757663480524209,0.03319643218262649,0.052080920137980026,0.018306466221729007,-0.09186917906381052,-0.05528673063798627,-0.033119567480305485,0.024909999895925062,0.10295046399537022,-0.008983952665162203,0.017097104041554297,-0.08156890447851665,0.0036157098624500575,0.046960182772012034,-0.04171139388791578,-0.04870437196426299,0.02463737601802532,-0.006988638780997484,-0.06419440304413392,-0.011995358710183817,0.0670205550827483,-0.020961675349702585,0.19367417176748564,0.010373067407772081,0.004362950015650146
GDF7,-0.053727262441407554,0.039239432701241216,0.006225210900263942,-0.035107517843282206,,0.045109694091134835,,0.015117986044949239,0.039072398918495725,0.03341304578836578,-0.029775295910050383,0.14414020728302648,,,,,,0.004894266917205691,,0.02561061939775995,-0.017208348495894022,0.016028824704245735,0.04458462217050156,0.0019984754435617845,
PSPN,-0.013121597620528822,-0.05687921299484496,0.06452079145393162,-0.016367408530930095,0.05713578813773801,0.044685253022118,0.01792443683880733,0.011177749284587438,0.04673762298597011,-0.04135603949948949,0.031072443285080277,-0.006843085300266825,-0.006512800892258645,0.03782670641947573,0.07329661979477789,0.030563289955849907,0.04656788771873386,0.07255763693316225,0.010811000603295656,0.036630202409164155,0.07278131453899975,0.045664565657116095,0.1880161101643398,-0.010932119029176386,-0.050971918041376886
ANGPT1,0.07386173491450969,0.0024887363028720704,0.139923955248928,0.042817242841426975,0.0107911973897737,0.027165716561205765,0.0471397175114432,0.036520870398555796,0.032014667665990856,0.03839972134961807,-0.024710510402625945,-0.055798898170688435,0.04671208370670473,-0.04102379591844626,0.01822938077066258,-0.04297593211031862,-0.03410002481570747,0.1463807022920798,-0.033354006133298315,0.0505599195544132,-0.03880099365319996,-0.025637183373587044,0.09663486960035628,-0.03291975301715935,-0.040952618237271296
PNOC,0.01645268426085136,0.04844891699213227,0.039651090604481964,-0.00030178803162959076,0.03199838841210775,0.04457202792616867,0.1218357661060901,0.0042092049635157345,-0.07551134174733484,0.11387547606104159,0.028847032720038194,0.1445638237494746,-0.015160333867833012,0.05555020236871336,,,,,,0.060462927645328964,,-0.053535537714782366,0.021735386233558657,0.03404161971662185,0.08607327268873145
L1CAM,0.06959748808017285,0.03361703896122866,-0.048604589381799505,-0.029759366673429315,0.03239364759451959,-0.027892043269734455,0.053727116988354896,-0.004807265586195588,-0.004785364518715802,-0.007358238754695732,0.01860043470780501,0.1057740753540569,0.04573257940332026,0.0038523918084559837,-0.0007181935904568786,0.03483145506091596,-0.006119254834833302,-0.030852084418731725,0.2580825523799495,0.16609264902495988,0.01219059332595272,0.26595484207490055,0.06519618671814151,0.009017246070991159,0.05012001589248579
APOA1,0.003352256120476737,0.028578569590810742,-0.08408547090021427,-0.015252500731276982,0.032746843422879285,0.024479025397273774,-0.0037957978485039377,0.09029555336485064,0.03726008524283119,-0.015166976267839069,-0.017114204115752665,0.13359284923972792,-0.011977796428764327,0.00022617468039480397,0.11755805216497417,-0.03759597074339586,-0.029516184420145204,0.0583151217970284,0.04778739171872411,0.004265256499127483,0.03538011886095971,0.01716178234880549,0.14609976523250287,0.008836869706780041,-0.026144654687270296
PSEN1,-0.07166521869559923,-0.02716194773430185,0.16140155050803115,-0.043300265042574546,0.03342167955776923,0.018097592581064116,0.050378873610159615,-0.00759398853854918,0.002425502969136107,-0.0034750020092211395,-0.039041890489508936,-0.19385825575092605,-0.0690610123091933,-0.016110974992033764,0.01603426152456774,-0.12351401788476238,-0.059501714715730396,0.05267757421649356,0.055485175152197086,0.09913242152624789,-0.0546981034687937,0.013078900192825779,0.018589816365220547,0.0828424511829749,-0.00200674361517398
CALM2,-0.06650138987524276,0.03791038915427242,-0.07359461300610556,-0.07479347780089537,-0.12000942621720093,-0.14420536764944814,0.11177152085853921,-0.08921424006911205,-0.1580090085199969,0.022997226377635925,-0.0005376502767864722,0.05802574557162702,0.09259478172022675,-0.03756292107854096,-0.08074926992335892,-0.08453297060562238,0.09148281355837434,-0.04083559205006751,0.1383121082233189,0.06755709396754567,0.017944692846452996,0.032351322765006595,0.17201765520907494,-0.05524435218834605,0.02559616220457026
CLEC2B,-0.0299658471438226,-0.004099319528262097,0.2831826701795317,-0.022997920893537003,0.11913989539665049,0.009813760099030268,0.054143776209090506,0.0027029797910120327,0.1730996883250955,-0.00016387203056677604,-0.014689885721266387,0.06139021244398735,0.015832849314749504,0.034970555466897923,-0.029706880086667522,-0.03135962017959891,0.010681209309283147,0.030790494174031777,0.10465684925725487,0.08423483358717036,-0.02753013521996445,0.08496858966274659,0.10270550066863146,0.061997158613987816,0.003764572664028072
NTNG1,0.0663479182790737,0.0383500914351688,0.03407886826830536,0.041076029236829285,,0.05001197018992599,-0.0006988935688879447,0.035770949558349016,-0.03551245931853228,-0.03864538980221989,0.054541055274812004,0.08595724303751553,-0.024843409953872044,-0.0191852926154588,0.03934463096933143,0.020760475312423664,-0.08919213281928276,-0.013394816126169967,-0.032022616301328494,-0.0113937296267057,0.004359495087703237,0.057205899147080644,0.1948671287418726,0.10545539633569481,0.10957677577207094
LRIG1,0.056634746154422495,0.0550067073707837,0.036330421744298076,-0.06805815358773967,-0.07162159299842914,-0.05122769454076622,-0.13948234296211479,-0.023598886664971598,0.06442789760985773,-0.004835636777859883,0.01164938557894288,-0.018398422274488943,-0.01496378694169205,-0.01006411231124183,-0.060253134529237695,0.0008165612796370985,0.12464439499608587,0.06762222990931543,-0.08715805754593398,-0.1301968972554854,0.08047179384671754,-0.2335708594652531,0.0904667791646971,-0.0910406311843393,-0.06041793561014829
CPAMD8,0.03549841778440493,,-0.01726199169258087,,,0.041777769198635524,0.016345365591229375,0.004477933631153949,8.569482938834293e-05,0.00837042217723996,-0.01535084343106134,-0.010349570179858615,,-0.023062784313567935,0.025408055576300787,,0.012522085565458614,-0.02971453606992094,,-0.010796383477127473,0.050806806862956036,,0.002993065969037909,-0.07872910283246533,-0.03525880488216752
GHRL,-0.032156190446183584,,-0.00044728952925207247,-0.023790483849329573,,-0.008517791917215202,0.06813078168939195,0.02233878462335024,0.01413838688489404,0.007036359800470432,0.018372390018463074,0.040240390321587945,,0.023286314179655366,-0.004380158763190458,-0.00782354069304754,0.08057586428471884,0.032080192119318854,,,0.00830181526945939,-0.034597193853069634,-0.008532521105264706,-0.007246737766566175,
NPY,-0.007803325058198797,0.01617013803578709,0.034366413764608514,-0.006975555815428259,-0.00235511077705421,-0.015198721220414171,0.02274709904043183,-0.017819244201330377,0.0752395185885534,0.06428400820144047,-0.014473050458078084,-0.10869668588996617,,0.06635585807818618,-0.058223282306663786,-0.14483239916682644,,0.026920489733079235,0.16508705886282188,0.17430771227450584,-0.03815192182649664,0.0029108045510438914,0.07700928232975493,0.02642321353829921,-0.008292811141723887
MMP2,0.03728129435363129,0.10196691575171989,0.06307009409242413,-0.015236173840894218,0.015954385739478612,-0.0880429789989323,0.08313359245904274,0.07314802056548726,0.06451903918773363,0.00022705016289759598,0.04617940715072206,-0.09321816867484121,-0.042874252700671744,-0.013354679954328605,0.18290853531952556,0.02238329551809661,0.08012213708563874,0.062132044543612396,-0.0078078863484524795,0.02005646469018371,-0.038986844080047295,0.06005055249009019,-0.05367046470343806,0.12497144178834622,-0.03744581056628627
LHB,,,,,,-0.012960821107426395,,,,,,,,,,,,,,,,,,,
PPY,,,0.07902908129114533,,,0.024218844853510536,,,,-0.004285827191797202,,,-0.014022632793290128,,,,,,0.16844475818846125,0.11228094800941729,,0.08280537354990687,0.13390695019680465,-0.02352419371051603,
ALKAL2,-0.024225806431493278,0.0445983637714002,0.01719568883619057,0.026077261390696462,,0.05952601351898306,,0.052740193088720265,-0.007674826143533629,-0.06328187490141426,-0.024816712727129167,-0.031065633684338366,-0.035751003104382395,0.022780678173458746,0.019060904860604334,0.06764928625699233,,0.03463327967177224,0.02288076950872507,-0.013827606581395006,0.058970575771588,0.040920411256261974,0.14907279161111703,0.060538810173968206,-0.04760072222404007
CSF1,0.04240297601254868,0.048616803340788675,0.3118770937434327,-0.004928354486892107,-0.06962934735231241,0.026646888731759407,-0.07065864935179735,0.03930157423662276,0.08744319780089818,-0.028610409823609736,-0.004738040278113925,-0.07454869640965257,0.026888688472529048,0.04295397364610967,0.142240436397711,0.010444555603223656,0.052585687315359335,0.05178584195001382,0.13083768556751604,0.08497722407408298,0.06377916325310683,0.23762023150257158,0.117056487736551,0.11803304682241057,-0.01487663635600099
SEMA4C,0.0581813301758851,0.05048022335430863,0.07150181735192057,-0.006848838649107912,-0.039086643138647265,-0.07409661187836981,-0.002135389261686627,0.02623796424607756,0.08198653111527063,-0.00846540452709973,0.019093328424467412,-0.02582273294125895,-0.002002436837210784,0.02243344481929343,0.022002985857791795,0.03424279780449725,0.13366336947243715,0.1596589816248419,-0.008986278221242303,0.05088941879317332,-0.008188206073662078,-0.0034219427208040457,0.10557301209892397,0.035720992772289545,-0.015069387623482687
BMP8A,,,,,,,,,,,,,,,,,,,,,,,0.0001908335618479292,,
ICAM2,0.02257742894994489,0.06985503432391069,0.027172562925792978,0.039100248411807786,-0.01618055941889081,0.00287445787089143,0.08511493276889628,-0.0053691593856451695,0.06430805811397823,-0.013955068740574028,-0.04168928253499815,-0.0012333795880148408,0.008275839603260629,-0.02067584781029217,-0.027915709577779096,-0.0781924547839789,0.0816237256997798,0.040471804726239055,-0.07222226513555162,-0.01348188513353735,0.027898467391662456,-0.010827989223996772,-0.029228688236625538,-0.09253694742004995,-0.003909063719425302
SYTL3,0.06134166236540505,0.014443020685485789,0.15237048869111522,0.012457271134833916,-0.013785809886245436,0.03525149112042262,-0.004028030943269381,0.08470450280963848,0.0975644351878531,0.005828487458810004,-0.05590187483364026,-0.052830896696746496,0.00192714204356779,-0.011400977734432024,0.042026188506577626,0.07205553261177357,-0.08792078229983873,0.0640554830926232,-0.03336846618047132,0.08565559839411069,0.07058721827328562,0.014872195307914593,0.021683118815918986,0.047593045264322426,
IL1A,-0.008356860177649611,-0.027404545660258437,0.05979272801155186,-0.007776930017123106,0.029981430424804653,0.09910781435498295,-0.034721644929276756,-0.003839000912139067,0.07197247216889761,-0.03811849067765483,0.020588822247398938,-0.02495845803012922,,-0.01095597977849076,-0.11380438311549912,-0.006208779428362776,0.10767484511533124,0.10297993842494757,-0.0438041264811291,0.04083982121279695,-0.008198851633653487,0.03373247983308121,-0.010659061635027677,0.04636034338248614,0.022999697805462314
HLA-G,,-0.020689763576948433,0.03283100079093892,,,0.03022498007713561,,0.05447978017600971,,,,,,,,-0.057894150631376984,-0.02343348596522578,,0.07267485039664233,0.07483610525622704,,-0.016595709859223835,,,
PGF,0.03285562343694149,-0.0021673637674628123,0.08465537039501775,0.019820873122190816,0.05329696502279332,0.00608311815630924,0.0037976745700657394,0.058514327573903964,0.13549973730788908,-0.03971284638076469,0.018230096325100763,0.005111043034476248,0.01955403715033918,0.07581253822702473,0.03255840258394925,-0.030033472345026693,0.049128139629069915,0.05287724229852626,-0.08436665210351545,-0.012787985294014096,-0.028320276702241125,-0.010216522061731027,0.09132088665490502,-0.007883914904799704,0.011509518869617454
LGALS8,0.036802789554240205,0.014748202323262415,0.09130216001737033,0.034871269704907455,0.04145351733464371,-0.025163338371562628,0.027913462184789434,0.006676439756838818,0.11243785231974662,0.021976903480883766,0.034826168765676874,0.08182764522866232,0.007273042785266493,0.03685088615015767,-0.011210260949282036,0.13562076391942685,0.02843180315336309,0.11925012909997318,0.0193398126400049,0.04755774915988268,-0.01717812473086828,-9.807923294112454e-05,0.1134851069544122,0.05234128837645153,0.049305860029658456
DKK3,-0.011065438237833639,0.08039247151866159,-0.05143515972982544,0.008290834532455646,-0.06109237027389686,-0.08904635173856536,0.12051157430797077,-0.08684610719440662,-0.04617933117701707,-0.034458804946220285,0.04580957042969825,0.047667110116163154,-0.005130158061031739,-0.02636470741430453,-0.07290213033219826,-0.004200791542701853,0.07140190826554503,0.05554948909681264,-0.08560921521117736,0.018801533983259334,0.056512173367578876,-0.2174015662247695,0.045486176102854305,-0.0913753387718812,-0.09087446979404085
COL16A1,0.10090940000439935,0.07893722878143038,0.0280947564255115,0.01777835748695092,-0.05640512433243651,-0.042803603043948237,-0.061823559530669765,0.026997034830139044,0.0530238024582736,0.008256883762771191,0.03265452992277464,-0.02096501552600389,0.03270070393944855,-0.045065809829898905,0.019925883959411105,-0.05845896669255332,0.08295477992631058,0.0720947923042991,0.0065555533826576135,-0.008543997541482516,0.032445993162425114,0.0851708459962558,-0.006102012816838809,0.050495097760679834,0.00987681403152539
TPH1,0.018527540644230043,0.035794420820009235,0.025521209427486268,,0.05272829557610448,0.012039383199873408,0.05818772597381811,0.031345476902834166,0.07868519356461708,-0.007845064769238673,,,,0.04811594494745327,,0.06652485193718542,-0.013155971453732724,,-0.026680068481271094,0.05942522059608253,0.04233996010103702,0.03724065608114973,0.10610338944715733,0.0075759084410869,-0.025002894806487555
TNC,0.0818156100782082,0.06047818148713539,0.419575668849334,0.013893355860962561,0.05894506101388713,0.07243128949957438,0.03665674122076065,0.04740342594283606,0.14626593951270875,-0.05291054364323155,-0.02920477077153382,-0.0867238039544858,-0.059842903044464664,0.06210995311778517,-0.01051134774979237,0.04045280226127743,0.10827979801328304,0.1716229876403382,0.21331014705391974,0.12015718653836768,0.10162310115279596,0.32132282488901215,0.2204549938152125,0.12454788221623664,-0.017181593466195733
TNFSF9,0.03737753544630904,0.06666914962506992,-0.041598233054616185,-0.03884471960581608,0.014666216283131521,-0.012047682743299419,0.08235002280568787,0.058847005091521916,0.052171520445753024,-0.024700386228393656,0.02423595978575576,-0.004959123244917956,-0.03318627535681756,-0.03184446477148895,,,-0.060859827668746425,0.11106538690063322,-0.02986493452390659,-0.02210355617555938,0.0015210788394439227,-0.06842974005970583,0.0026605095850072897,0.01792523730155637,0.33477200014006125
C4A,,,,-0.02459167881149982,,-0.04338812097110285,,,,0.003776366877815854,,-0.04514359907089537,-0.016629063414790465,0.0621546613441216,,0.00329755150535015,,,0.07642249430572863,,0.049573991847870154,-0.0196721278917302,0.09317901850701488,,
CNTN2,-0.14317112377588895,0.0566257638386139,0.019845552339062014,-0.06293712574252423,0.05436019580721644,-0.029871630496143577,-0.015777168242000948,-0.012788458696351538,-0.09495028818937912,-0.027939257234012197,-0.06517728055210469,-0.13555893485771076,0.13232616387865556,-0.02512350036732851,-0.1187689843965486,-0.05709134293620144,0.023569127169250897,-0.07628098823037303,-0.062258334989577384,-0.13376119600687222,-0.0818769566458366,-0.20006118504032283,0.17271494015008967,-0.09665641519557096,-0.12404709324309572
F7,,,0.046149383444405744,,,,,-0.002576583678834964,0.003077777116284909,,,,-0.015160335995206088,,,,,,0.002318224418032215,,,0.11191860624106117,,-0.031076170030730103,
LUM,0.06330684161318474,0.08767278956221945,0.16595340950747076,0.0226294979403121,0.04424440518002323,-0.04653724834079202,0.05802382190969169,0.001502747564252407,0.09559405074442476,-0.007540491570845027,-0.037371733310378574,-0.06840782735047447,-0.0033109369800553975,0.029479182900566794,0.0015118533874038105,-0.06634175186707612,-0.03502651677822415,0.10065545366737226,-0.02202900174273969,-0.009474580137949652,0.08246818648081364,0.12358955320379297,-0.11307440806972367,0.052173786055742764,
IZUMO1,0.035919503919559975,,,,,,,,,,,,,,,,,,,,,,,,
BTC,,,0.03962486152018277,0.03438398415985808,,-0.005762598835984964,0.03323599109473241,,,,0.03206969041112918,0.0924622321274107,,,,,-0.03001995571255803,,0.01719591648864282,0.06254370785584615,-0.04720905881429524,0.0006491908244880861,0.03799270536703595,0.10649961053924144,
APOC1,-0.2162774454688215,-0.0811558358740226,0.13010315156180438,0.023355194902759332,-0.0031930915266685286,-0.011488628224739431,0.07576364243045938,0.08168921828654906,0.11973067759222936,-0.029126487826747385,-0.01590134024199798,-0.16627473651041394,0.058436723271025566,0.00660510516091152,0.18902239279988295,0.05434109261824051,0.033090819434998746,0.13701719604194731,-0.09701060046487987,-0.08576715875190999,0.02637668440772734,-0.22103266973321076,-0.08045750701194937,-0.03995456268589849,-0.03348886416231929
PKM,0.011964805359410626,-0.019880360064859597,0.14355408701033545,0.05629718512060002,0.07240696929887487,0.09507303839045296,-0.055908469643909005,0.03947895161950051,0.10203925937988761,-0.0694221625977708,0.05894205912331933,0.1931416326733354,-0.015119023324158248,0.0057358707131191485,0.05374621830832079,0.11247553550857112,-0.054681423448126584,0.14661079118952505,0.19964181994616265,0.1754238728545764,0.037733676094007365,0.16878841848883266,0.27307391291973554,0.2539889868833813,0.07764028061309305
TNF,,0.07445198410295362,0.020462719080181466,0.027342929996134437,,0.05853771473439036,-0.012775704694178412,0.0357762589519959,0.018129568705191314,-0.020009650106593477,0.004126238196868604,0.06061510328217969,0.015591733764341297,0.020315392944417608,0.10102863399287842,-0.02249933330836662,0.012645308865473971,-0.009738791269427642,0.044567812162830796,0.0366050835722737,,,0.05936122186748798,0.05114892704557961,-0.03214491662893028
GNAS,0.12825695881045637,0.04194557176397232,-0.20439452498974675,0.04157314144035475,-0.0053229996338037145,-0.11491820426338165,0.05039108964020046,0.010807519003079703,-0.02978712103616239,0.012670469943588206,0.020872824946425058,0.11954079141034356,-0.04550681583917781,0.04513465983115489,0.1820377289912161,0.112691974727292,0.015238374586669313,0.04293852323729215,0.04288588577253249,0.06806667968750733,0.052165338077483296,0.12579956241204687,0.11884082880437956,0.010273031388913419,-0.032208297253530666
BMP8B,-0.027867749394314863,0.022384668016069628,0.03719031034739373,-0.011774648744418938,-0.023555347341513586,0.04855454954176354,-0.007398074025891297,0.07923117383047118,0.009993331118308166,0.00843629748094853,-0.026359966288994986,-0.0040592665942350385,-0.023665990642235412,0.020638724682626505,0.12457264997117405,-0.007639306592320722,0.06844167000548422,0.007639007489439666,0.0701679079147548,0.004388975789343041,0.022319742023188423,0.08623269959884013,0.07488125670647362,0.08060366479549279,-0.024816520277185658
LIPH,,-0.014740784183377627,0.02724664591064079,,0.014839025948951461,0.016912695275929465,,,,-0.03445287272241768,,,,,,-0.0659228027571409,,,-0.01136396673484805,-0.06165372034082578,,-0.005898993794357854,0.06936767862901771,-0.018060329460753196,
CCL28,,0.02207176467280943,-0.005472753524551338,,,,,0.020006948698670358,,-0.006329003639330351,-0.021547297260914124,0.004572877787065902,,-0.017110330098142376,,-0.02928797823010335,,,,,-0.03803179639221187,,-0.01078177426162455,0.06743799113976497,
PTPN11,0.014364515416573645,0.009645968505940461,0.019980535987580365,-0.015813915759225357,0.005690536058141747,-0.041093675271300235,-0.013214910648877413,-0.010456695647399537,-0.021679660950345875,0.0180585775214728,-0.01874615447437266,-0.10727637217737498,0.053865345643846166,-0.039460274025597944,0.022985405492656406,-0.10098678393567029,-0.03393700670212731,-0.07478314264188918,-0.035661536341550705,-0.040744603779339764,-0.026647183123987707,-0.032471511854182816,-0.015655706787577547,-0.029974675773366502,0.07055118894150965
ADAM12,0.0039979710629778,0.11456481893815716,0.20627347416040692,0.08685334244613739,0.0441079498286884,-0.020002738659450167,0.05073733552175171,-0.04641311303890706,0.0492974151683372,-0.01724334304734952,-0.030131863624727483,0.022165503375804953,0.03006146891003701,0.028935123022114338,0.15968583339727246,-0.03836715251770637,-0.0063491885196325076,0.16322397525089874,0.04029339679931065,0.14035916991607572,0.07895802610882814,0.1362237252420781,-0.030089140620236723,0.06429179849146159,
EPO,,-0.06192295781464018,0.02833327089892777,,,0.005183678345198921,0.013279787083770974,,,0.012016911787182743,,,-0.013784362486227334,0.04176728417530956,,,0.044304029615932716,0.039280050633849345,-0.02457767496182627,0.01877948781128392,,0.012415642530046176,0.04451275442222762,,
EDN3,-0.007822635950849649,0.015493496135914215,0.0343698555736869,-0.004452116246983772,0.00590111154492308,0.003985190471263378,0.146447985977119,-0.03426172359108001,0.07508245076838478,-0.010526516909142412,0.033834427234767234,0.031654782125099104,,0.0035657174248862203,,,,-0.017969593377847676,0.10381652826217508,0.08080442440075618,-0.0204409001393181,-0.06500197601872243,-0.0036997256369737104,-0.05384873227690636,-0.04106507566486651
CCL22,,,,-0.0010975109937148896,,,,,,-0.01128829148338254,,,,,,,,,-0.05011669878979914,0.04797120575892159,0.055614507811290806,-0.030460805490242257,0.011592040718870588,,
CCL2,-0.1090703893517783,0.0658362153699634,0.3898835909164511,-0.023260552375293633,0.032166590184906675,-0.017186832013073427,-0.02274264385516723,-0.01836568453395351,0.1035631598438747,-0.05196705401636419,0.023360732676136947,-0.06657799105930422,0.07331348055162279,0.01876107203541377,0.014316568856121908,-0.030118053199024157,0.07030568632550642,0.08833593498508878,0.1263748856878118,0.05043477406402422,0.013610250566627438,0.18536579585296523,0.11005050242315399,0.04606303584410593,-0.08302032184835337
DSCAM,0.011195337217154244,0.035695087372056095,-0.010140273077106805,-0.017789636586999436,-0.007788082574917443,0.010796023870935617,-0.026662861585765425,0.09932327263372938,0.0013468682604338231,0.06471387029589103,0.00813381676072778,0.05017064408923808,-0.020279895107945485,0.03297709513287402,0.04705407958963007,0.02040995554803453,0.04312956458185129,-0.01740810210066169,-0.033665088078809066,-0.017760982135299353,-0.03077750051587001,-0.020231374137233603,0.20396797080568524,0.1499228654964602,0.002583629824257124
GPHA2,,,0.0361265120911298,,,,,,,,,,,,,,,,,,,,,,
ANG,0.0041285966259548,-0.0923197528116145,0.18817712871859762,-0.03313091184540149,0.08139151359338183,0.14409315109880524,0.011643863848763555,0.0015103398285801917,0.1636619971434865,0.006695396354669048,0.02185611550547428,-0.061884607238455194,-0.03830542849138553,0.050734490217415724,-0.014399473016324204,0.1507501038378367,-0.07046205509448782,0.11907819947213884,0.16906234339158663,0.1003118464153751,0.06906147756664369,0.027768616084389477,0.16616179999867203,0.04859693702505188,
FBLN2,-0.0489645773622832,0.10665524400149563,0.03717668537328916,0.0052191281143802015,0.010544865602500257,0.009266915963074752,0.06120253382572465,0.03283524477320955,0.08263336087877449,-0.004373840822999221,0.01895751462816506,-0.01916844505276091,0.03966105330167698,0.008007885304540585,-0.0011906801998444662,0.028342895867551815,,-0.0673745407075763,-0.00540284605088919,0.10832720316575267,0.07465876882716838,0.08288275307950793,-0.022288574421830982,0.04630562415776049,0.020444609707653248
VTN,,0.05690437581167578,0.0422568613002635,,-0.011809686810133176,0.0002807980385780776,-0.014895935548230814,0.017324940047542346,0.07443389351973465,0.08118632117358204,0.0322273083583687,,,0.019236097485455014,0.07832413234251556,0.020831933784522524,-0.04400450219211237,,0.03261238129827944,0.02303711241671813,,0.03918553596208766,0.0036380468999221392,0.026562559505538364,
VEGFA,0.04900802758001968,-0.11440936928414433,0.017163203540169043,-0.030949601723247778,0.06556843204928721,0.12866159484694936,-0.11108403660974504,0.10364367064828163,0.11798907520784663,-0.008204867324132429,0.05079440742562612,0.06106025023568813,-0.13319457054780426,0.039882561878855645,0.10536894165987341,0.12596725267047554,-0.1646772960046646,0.16321004621931617,0.11873485105970859,0.11032325742596891,-0.031144669280823847,0.25125223953018455,0.041275381854519434,0.1401246496702131,0.009286319529481987
F10,,,,-0.036437009377166804,,,0.1299635265331427,-0.05812853065832715,0.0111051675844411,0.05407076325932273,0.0432660628577335,-0.035015791186458436,-0.044474246768187765,,-0.05537629342891198,,-0.010798861450989228,,,-0.022775162466770357,-0.040844728324177924,0.02409387654742597,-0.0048169945889292845,-0.009577225793711097,
SERPINA1,-0.04412332474718625,0.028579914163853224,0.23686871362134868,0.023525846122170038,0.01733172877138361,-0.021852781774798703,0.014027875203957332,-0.02114485730482252,0.13214461357757398,-0.017211371259322223,0.03138893536249126,-0.02762078451185296,0.06899557345741089,0.06499298934411911,0.06237311940030864,-0.10954937067674596,0.05782635284027549,0.08808451003033378,0.1429982957869524,0.0661511902489879,0.017536772093537996,0.09757776499601759,0.012680757860850366,0.085537807028605,-0.04443532620430168
VWF,0.16148245929074168,0.11093522912416508,0.08932457653319213,0.05360537018990602,-0.01867452997931439,-0.027882955898866704,0.07144885486272942,-0.014391291178830722,0.09688651998317628,-0.0521937601864705,-0.030204481424861013,0.06470172770432282,0.0056548817680002784,0.06326283524223786,-0.07002545172350347,0.0012205400662944049,0.07957640595908531,0.04098022493806503,-0.10131106256501993,0.009838877821474183,0.04242468236719233,-0.0934016833393382,-0.12840460793986477,-0.0972177038637678,0.12282859481594192
GDNF,,,0.04824505779604709,,0.009950192864321335,0.0439159752708732,,0.12000313205206616,,,,,-0.012749942187621639,0.01997629597749987,,,0.07035489087837532,0.03168919989478162,0.03469336235368208,0.0712438856118142,,0.039542120336581194,,,-0.035379690077285496
VASP,0.0368669884684434,0.02161770331233015,0.16179564392473308,0.04154903875168701,0.038246254535936136,0.009657943477703613,-0.044959023285414415,0.05440870905687194,0.0966281394258316,-0.009898350597963207,-0.021962395213182623,-0.05990507913431567,0.021544804360356145,0.06861465426424604,0.0902766348278822,0.0018981770384596311,0.07165249431311616,0.0521905368732238,-0.011741446888787173,0.010105781638148468,0.0039778617930031806,0.11568258684795278,0.15286125999257333,0.07438815300309194,0.08653616085461924
ADAM15,0.08547920635462027,0.12204402959952061,0.08535284693692245,-0.048350086713547576,0.018288956686806156,0.0031338700543195293,-0.03919975465120718,0.0684120104627092,0.03957132888091515,-0.01035624776841857,0.029628545845057173,-0.07820221681307249,0.00044209879102428767,0.030181883490447384,-0.0584561153189056,-0.009869434371770637,0.12902413054472175,0.07469431475846935,0.06198173368293549,0.111498398761931,0.07116175670825249,0.024890151802663497,0.0494043387920418,-0.05558171705439025,0.07975837720343036
WNT2,,0.0387770927024247,-0.016813130883374404,,0.002366422299524611,,0.05322174968811423,-0.027971224506318802,0.11055816079007234,,0.09543216226981392,0.2091634570958342,,-0.023817380968646322,,-0.04292935387511933,,,0.002010088442201687,-0.009657748276877735,,0.055932952146554527,0.1014999751032283,0.048406668650569085,
CALCB,,0.022619983467251067,,-0.057467924538797795,0.007285172325793927,,-0.027032694990357747,0.003542953279462772,0.016619362813286596,,,0.05628481481934385,,,,,,,0.05407317041918914,0.059315099592964216,,0.00390218864875505,,0.12017295132608456,
OLFM2,0.00901702440337399,0.10800449760322636,0.01665556351098752,0.0040410842157606874,-0.004375351840529534,-0.08343960786217286,0.0690115633797364,0.0022542562784832487,0.0005512540087881236,-0.0035565882349545643,0.009554206864549051,0.11496412994329304,0.07383399032744765,0.03005764816124333,0.017719425075042594,0.08484265235536179,0.11857978668516078,0.11398915722281205,-0.07927664180469342,-0.01346606262641277,0.020399179145139102,-0.009145948672844961,0.13843662798759174,0.08254111719703859,-0.010884141665773341
MFAP2,0.03959043921572898,0.09815100479983925,0.1356722625689225,0.014340627468644956,,0.0024495563865226805,0.007373042144816105,0.054784021115480155,0.11841525050099369,-0.00860327065634198,-0.05539314204315038,-0.04942754875395329,0.016386354226547873,0.04398005018812345,0.14177948239377497,-0.007838064035607035,-0.03795202855956109,0.06514634575917576,-0.032946450098948775,-0.05071623098030871,0.0956704390573502,0.11321186970998164,0.054547153347489705,-0.009133631687156104,
HLA-C,0.19293116034093877,0.026385988285117307,0.19558448750339238,-0.006051342811311243,-0.047157921309255266,0.017702238320497984,0.04310016502024396,-0.01553642074711158,0.16023594177030503,-0.040291959619599756,-0.007838475168640816,-0.05247812424225706,0.008974551051313331,0.0880155927889822,0.15721828478871996,-0.0158088880044344,0.032257675621975186,0.10997158364301612,0.28499366428704426,0.17126032795069562,0.0640764929428901,0.12671995981930093,0.05978339644239358,0.0035904031706746557,-0.0674737397774563
THBS1,-0.026601459072580012,0.09669763442269656,0.15958258214923673,0.025273085523532503,0.00825542870401931,0.005986921010549001,0.03987603036744407,0.03799523809471487,0.027226912317852126,-0.05365139163696968,0.019901542396268544,0.019113047670574774,0.04516684051432752,0.04861264351494834,-0.010788780881204,-0.009059596374464301,0.10688926971788779,0.06894221212656235,-0.0357625023464227,0.0998897336101378,0.06626115020433107,0.06458144319918771,-0.18409572372629907,0.09729281789299407,0.031726881083104286
HSPA4,0.012929152250030804,0.016271892145443317,0.0389337573943599,-0.00892866371035906,0.0038363107303030436,0.0017976174895355133,-0.006518448128113595,0.07252289751501224,0.10154864419792117,-0.06472774456210421,0.09352683072990682,0.08097129317011569,0.02709107273329174,-0.001282365547721064,0.021972801706657642,-0.04487157531169858,0.03489063081611286,0.09162627212483605,-0.012693973742421207,0.01823953449797621,0.008039154855667025,-0.020209687404603133,0.0022960147035106554,-0.021100280308360645,0.015652952002853788
LMAN1,0.03992383703411331,-0.0895517478173635,0.19925697152895727,-0.015508722393334904,0.12771509528027966,0.09235543319693794,-0.09815643824646848,0.05143658746326111,0.08926639846716013,-0.019802437956197606,0.008844760613928356,0.0035224158932303812,-0.041967851084989696,0.05083393206055169,-0.02269690711171092,0.07009191208199995,-0.03661381169187217,0.07029999030482274,0.04446310359263659,0.05189126398336223,0.022862387610916593,0.08426738487364745,0.013668701460402177,0.13742888326042912,0.04993179900280569
LYPD3,,,0.02072306093481844,-0.006920151085448855,0.03084485815262862,-0.013259345141752137,0.10256998557070365,0.05570524253674931,-0.022671140320386442,-0.04447031767529415,0.1195445239194168,-0.05116257964048218,0.041055020128609315,,0.11460541145982042,-0.016292443623196064,0.04593646699340979,0.05668534394429076,0.02279532608865566,0.06304620811837043,,0.02548490066778847,0.039636396840380866,0.024605417625550727,
APOE,-0.0036013192435990285,-0.01413766777877847,-0.07806493898801485,-0.028150846302067056,-0.03329767065014165,-0.10418914803073658,-0.1327099296637681,-0.03487340769622207,0.06487914149845819,-0.02014818036039083,-0.02425852832487618,-0.14705922751393205,0.02008770895704385,-0.03653512759279149,-0.08785008703681252,-0.04697027255231272,-0.03101406183822364,0.023153011905579158,-0.3194639857983771,-0.24053571523140144,0.008141827446897447,-0.3852130210029888,-0.16859610660023164,-0.05289037711379942,0.02583980783667169
SOSTDC1,-0.016037305523835803,-0.006690870670769405,-0.024141216037295268,,,,0.16127512580529038,-0.017172420875484606,-0.0072157538875783364,0.04352335353548352,0.06064138938223986,0.01637207710012652,,0.025213839539361196,,,,,0.04946443647511001,-0.008465796183593237,,-0.06721634554700591,0.07948035902023941,0.0036892718505127384,-0.026699006350711988
ANXA1,-0.1819073529358767,0.025551890970287077,0.39921205335002036,0.0024009955820179585,0.03442218346479614,0.012853286520504126,0.07227762742618704,-0.006017788020723461,0.13838922252531666,-0.046722206168106295,-0.0033206381388401255,-0.0509615486951499,0.02346179275991642,0.04267795259592296,-0.028831087551301378,0.04030009921430049,0.1877028205929588,0.14367192381852392,-0.01698952194397682,0.056034425317645825,-0.00025489845718220115,-0.05694997860347467,0.0028793767490100782,-0.007757461019459955,0.06867639232116128
WNT2B,-0.00978825892597542,-0.006261397657284601,0.008785952539571535,0.05578308156984964,0.09518116829649986,-0.08141506854540533,0.011476752210514458,-0.057035855502430545,0.033021001557172226,-0.00905663290832906,-0.00731312136119284,-0.004536895289411363,-0.023703010518084978,0.009110195354810134,0.022431697029996242,0.0008678823161759059,0.0340165681719883,-0.012740518671483878,0.09363063088483436,0.042384465464120766,-0.012275061233087354,-0.0350066635413708,0.06880740881167502,-0.03353966757253778,-0.043322870635227446
AMH,,0.008982920013774291,0.04381893957627539,-0.022357469841397703,-0.0472742253807042,0.10616865221632969,-0.009747018964344278,0.04554540117252765,0.054611537219012386,-0.022932771730583938,0.005843019687726252,,0.01457445972307083,0.026044964631533184,,,0.030093402382855204,0.13165296900439752,0.0788318179340898,0.031460579177643035,0.10375035236563988,0.052600130105195354,0.037210661545838075,0.09125038791649485,
GDF10,,-0.014292310188897364,0.03534648053361937,-0.013757545248014433,,,-0.03530854430567436,-0.010922861337668715,0.08068782939270498,-0.02854725832103492,0.02977555538059563,0.09865657052985448,,-0.0171735041986286,0.13038062485934945,0.01205523594803621,-0.1000654229988002,,0.01884065103208366,-0.0072558617138125964,-0.0003730945765125301,0.04349298929435315,-0.051843885785406225,0.016251289984357608,-0.044419791254145684
EFNB3,0.08825827250563903,-0.009275820419397915,-0.0028736224990273127,-0.04953637091551005,-0.0278062924741874,0.019977200003442507,0.07144252811717197,-0.05570635497362743,0.07487253010151373,0.006703309735911931,0.007041555076428526,0.048226433898541754,-0.011948033179043069,-0.02156529267081736,0.10105049683255855,0.06709273911291652,0.028474691141434097,0.1031485309893301,0.048258967403184146,0.0470811875116999,0.0061159091951227,0.11243974764893953,0.15044124545291815,0.09241859753492371,0.08577874110665865
LTB,-0.04254100353288335,0.006930916855296659,-0.02982460445152059,-0.06581132982926768,,0.07371435066343458,0.0316694627742906,0.007714663717142857,0.06148992324110055,-0.02180371081497491,0.025067639315697315,-0.001679271976716888,0.06330583144585786,-0.016993639538089005,0.012407069423829428,-0.004859311502039099,0.01285198433989264,0.019910119351148056,0.028233728772395036,-0.020241709147873897,0.05423259500033485,0.008745113876544712,0.04657972633122723,-0.07744675814013546,-0.03129729705842946
ANGPT2,0.04064644640938556,0.005979530927458153,0.02076793997016292,0.02638818575285683,-0.03653076520320442,0.03432740358657846,0.05939225649612562,0.06067040146006899,0.09695923594364785,0.029173190737631426,-0.006772027868124244,-0.010241340726888698,-0.007167754301995871,0.052132542993010324,0.024623389166869476,-0.0195014959526558,0.08419466213213003,0.17942089815065523,-0.04445226076431236,0.008216557556025498,0.016557088477590697,0.06354182041497446,0.014923924685921673,0.009639443044567474,-0.060939822155681646
NRTN,,,,,,,,,,,,,,,,,,-0.034713654075817495,,,-0.013470525570630342,0.021666267914145356,,,-0.03707410431143151
ADAM17,0.015579545957640061,-0.051161769781166704,0.10410954046886559,0.009629939782007912,0.10854730668871362,0.016847216427185997,-0.10129813744077437,0.06952442653640031,0.08621815458022636,0.015311734073990394,-0.04709248276944263,-0.009458671492287919,0.01531772086609678,0.054756524817695995,0.021459885383656386,-0.09538994602280385,0.025983189283383258,0.15443169722407246,0.0467151906470331,0.13261372310337818,-0.001991230079031993,0.15314854187842072,-0.0487420843051173,0.11971008267633161,0.03977301811357525
LRPAP1,0.05662090331888367,0.10723937757554947,-0.05007609377135751,-0.022218412933258613,-0.017272205509700666,-0.018974571016218078,0.05004772114318787,0.016369454018667722,0.047729641878040616,0.021952219727029623,-0.01290057181502329,0.03671723692462618,-0.0460693258324308,-0.015170268953534457,0.03216409669477779,0.014190393303598775,-0.034957655413824715,0.010892505375824027,0.0027447392321558375,-0.04171824034818507,0.0051988392243255905,0.008348355756776156,0.006566808350525883,0.02785942046768333,-0.044801656453080034
NID1,0.05366410167627146,0.034784975938824014,0.12170364167427421,-0.03656778478532245,0.05506820024080111,-0.03352429083798993,0.029047224502179125,0.0842956650689166,0.13629428930933485,-0.017599474698805635,0.0032811447660909022,0.05376737705275011,0.07584984137606096,0.06310789846483059,-0.020174210955715095,-0.011341955985444735,0.004454212795178724,0.05391754501819758,-0.07400482723556041,-0.007563183889972467,0.001372960876118918,0.04399276314534272,-0.07684019869528527,0.007667297106287239,0.03167219626615247
MST1,0.019587809465140386,-0.009907470064818489,0.008860768037743563,-0.008918378751437032,0.0021207748633726813,0.01452806734232828,-0.0247462756907886,0.10830766363650288,0.07845317985308478,-0.0028391731353902445,0.016841275810284426,-0.006947364954462871,0.08895895828685017,0.01601235803614793,0.17821446725215256,0.05050106807227164,-0.016332470498111807,0.02012221861820715,0.06442151470125651,0.1300268951662664,-0.020883762280933096,0.06552795859009844,0.2207075451363709,-0.0031763560208474097,-0.04106502512647486
CCL14,,,,,,,,,,,,,-0.0026019456207797375,,,,,,,,,,,,
IL13,,,,,,,,,-0.02514036522426256,,,,,-0.010388519509974735,,-0.013579151213102261,,,,,,,,,
DCN,0.10759186447661205,-0.027052131843397637,0.12039073666049369,-0.04033392201854735,-0.0351043552341831,-0.03290361246259782,0.11345673082304397,-0.010624649202933137,0.12264250307448543,-0.011839698751237073,0.022693943132201806,-0.07137978160217977,0.004281697362147254,-0.015741748025833984,-0.0776193136741002,-0.01564067523527762,0.07654669347920337,0.054363541870925146,-0.1511590349784776,0.02646332613932857,-0.003503578482512133,0.09633802632345102,-0.20284282415892643,0.01849968890764203,0.055553214443006566
IGFL2,,,,,,,,,,-0.014504966441254546,,,,,,,,,,-0.026360730866107445,,,-2.0273671441264642e-05,,0.15801737503102278
COL7A1,0.03494669572403872,-0.05602637123821133,0.04358025398199528,0.02561052716516621,0.0026145257796173793,0.041338900193105856,-0.04076912859367667,0.13273298467032746,0.10540987725395089,-0.009726840228784395,-0.024965515419933616,0.04108148675901977,0.006198073520316754,0.04126799091578573,0.048908902570354705,-0.023274189460829695,0.09419651060856733,0.05891424683165815,0.02231709404708357,0.04293071331682085,0.03326506840358,0.13906259386514933,0.08632015129830531,0.03621224599002659,-0.04964173120575573
CALR,0.03129700907412048,-0.012996146576244254,0.18646562405732217,0.002828137118380219,0.03773101573812346,-0.05024744535203275,-0.1459185927553683,0.03315933642617391,0.11781091410571332,-0.042347550419077486,0.030913976225395455,0.013767514802376033,-0.002655432069908072,0.041069575818230494,0.04713242989254702,-0.009261643735012237,0.11966848703379156,0.0911198233242807,0.09790351299626956,0.08480702623926731,0.018500748872978392,0.22292536245784825,0.03828300183691753,0.19411437316488095,-0.10909254085983407
PIGA,0.012427417353403029,0.0034198108865026266,0.08667650646693117,0.028175528100473995,-0.00841864768188459,0.06444497565384694,0.048811645565840056,0.025070685607554655,0.04104753424265933,-0.019277832947456185,-0.00043174636778006145,0.007733638450806591,0.007988067579943118,0.0228967528147273,0.14171490218668273,0.03672730349751817,-0.0333184309279401,-0.003860859693647239,0.13747156746376435,0.047464308246048796,0.03758950610995846,0.03440260440395687,0.1246554205072493,0.14022623872723008,-0.07742905819536612
CD200,0.04612079092844894,0.0575478650424553,-0.014608710412268827,-0.033957286694350754,-0.05715957314521719,-0.01847273869233141,0.04619049605056586,-0.029513726627445697,0.0008506625933031594,0.051163616064231726,0.06755139975941817,0.1359506768098878,0.11792874833087474,0.004844750579388801,0.07971231847004195,0.0697354387692516,0.02777071930897212,0.06375955300254418,-0.008442834375538747,-0.0390403146857656,-0.00941702490890807,-0.048502412601120794,0.10703049435442058,0.06276747260405742,0.036016842504813386
