,MGH258,UKF243,UKF248,UKF251,UKF255,UKF259,UKF260,UKF266,UKF269,UKF275,UKF296,UKF304,UKF313,UKF334,ZH1007inf,ZH1007nec,ZH1019T1,ZH1019inf,ZH8811Abulk,ZH8811Bbulk,ZH8812bulk,ZH881T1,ZH881inf,ZH916T1,ZH916bulk,ZH916inf
IGFL3,,,,,,,,,0.03774786399567667,,,,,,,,,,,,0.0323417009970108,,,0.03544917505018007,,
BMP1,0.034091522636438644,0.12399852889882133,0.15771401316356073,0.03802485093503507,0.18116555327469558,0.015648475396265304,0.0449282004981174,0.08338984352390397,0.22103045605560045,0.044855380728820844,0.030322053097305356,0.005331749555350407,0.15237007119593718,0.17546150939569552,-0.0012949095590956408,-0.010403822124450039,-0.02841348406299691,-0.057308521977123474,0.04772259242951587,-0.04407440927762304,-0.07281318966629553,-0.046768779060499616,0.060540198792725486,0.0619936992637626,0.08380309932539429,0.0486745862785095
NDP,0.009698624510682822,0.22599764079287976,0.09811240986686968,0.00986340161558081,0.06343651583412363,0.08817201429830453,0.0023026721645424057,0.03523175890208517,0.06642180336272385,-0.01301787120071978,-0.011761381925879125,0.09243725404847684,0.09173849826023184,0.10554554347999837,0.009099969198241846,0.09709673804565534,0.029957071604370458,-0.06341231267782076,0.022130305422138733,0.0487688862849524,-0.08918844780678925,0.06524656788380646,-0.003238933018754486,0.04228359006108965,0.04069812426815971,-0.06831365176090956
TNFSF18,0.05121308235325987,0.05168628992935998,0.005694160176135007,-0.010534792633973555,,,,0.03278914960771728,0.03423654442337317,0.017414093918436246,,,,,-0.07555721388453308,,0.006472449576932214,,,,0.011242772652475523,,-0.04149825701622775,0.007662820991466187,-0.05466527317099492,
IL36G,,,,,,,,,,,,,,0.0023682590569371557,,,,,,,,,,,,
RTN4,0.06220741756271876,-0.06291199733069971,0.04744585120138757,0.016434975861741138,0.06034731033075516,0.03769317550463829,0.05643929445918946,-0.13753211175832172,-0.26129921867974326,0.009387717902398411,0.004426485086068617,-0.040570037249178334,-0.0341113831575923,-0.08444367403676345,0.12156123422819848,0.08945605290390946,0.046284143097759085,0.11316565876320363,0.05889691324490413,0.023275584653995644,0.11395666150299189,-0.011579713997205638,-0.0656693522953792,0.04086952209620903,0.06858011699608094,-0.004611420983852267
HEBP1,0.035897249708504414,0.03904059848703117,0.017698075947701602,-0.017583438797239788,0.019872275630428468,0.006787242391492093,-0.0325043763211109,0.013486291872831438,0.08720612057909141,0.009853160747809963,-0.023363752138923655,0.061323829271536824,-0.007381472777289325,0.10018263264107757,0.012035321393671784,-0.018074730158698406,-0.026833830099195585,0.027430242550915283,0.03429596925645187,0.025455708256787318,-0.003865047194263835,0.043743707639374095,0.10931192352060053,0.030524118456838698,0.03419861068222763,0.01799598057676358
WNT7B,0.055995330262080346,0.037341757864982346,-0.01159437916209198,0.004208928237946947,0.07206702998919293,-0.05747201691001736,0.1376475075908426,-0.0285278307084092,-0.15428986433874545,0.048586221005656204,-0.03294990115493937,,0.04681764746869356,-0.06655756336539798,-0.0515083534764537,-0.019249783705624128,,-0.03595940919443071,-0.010695369015106131,0.006790482075930377,-0.07718123262462658,-0.020598148861828005,0.07883910082208007,-0.02482548375531102,-0.028701294155369057,-0.13459718093845363
PTMA,0.0685464141523702,-0.19025376404882766,0.056368391671385326,-0.004038689172501099,0.11494967172398353,-0.051513287690614626,-0.09282154227519329,0.06057238371926716,-0.07446824309462755,-0.06789080329719657,0.014279576994440954,0.08570109813279746,0.2981697271123516,0.23350386621545247,0.04099385056447556,0.027181779339609188,-0.033407985363996584,0.09693571773517902,0.008414061696727537,0.004293975288828354,0.037381206300911164,-0.05949408237394747,0.0502844916150968,-0.02928760362961085,-0.08761262942800484,0.0286009971004563
FASLG,-0.008916190431855554,,,,,,,,,,,,,,,,,,,,,,,-0.029152703990043452,,
CEACAM1,0.0780885696979202,,0.01665683126534237,0.005415789198041381,,0.04647834770661413,-0.020030462090283505,,-0.0020034535197995832,-0.019657723443912707,,,,,,0.023609556879710464,-0.06947524634384077,-0.06209844995571154,0.05223089296941774,0.015848538740324044,0.04246304547175171,-0.04231137085684345,,-0.011284693300835905,,
PDAP1,-0.020425283682525823,-0.048157541952081995,0.056111403456004336,-0.0037771870896366687,0.012114261892989893,0.04704091876615284,-0.018301402158192585,0.062231444102094836,0.19837612465188909,0.025388639249915766,-0.0014059538154655633,-0.03055281858270314,0.16196129621993294,0.13112062148742207,-0.09874216163459415,0.08906716165163332,-0.0016577208925555816,0.0055867981170991355,-0.04027379094702384,-0.08227516249384417,0.019535733420091326,0.009307942991960699,0.042464362297533566,-0.04109388801605447,-0.06355671812135631,-0.10083464802404249
QDPR,0.07108827790403167,0.0959265730397598,0.017873869034980495,0.02303181129825073,0.07640033414525194,0.008956096754599258,0.14075802742722343,0.006292354381734351,-0.09869002571406198,-0.015035489311080917,0.014555625548141313,0.2121772381259329,0.2305166665920586,0.009524968067779315,-0.0001435704840540822,0.15602931873127435,0.017878485073267263,0.13481743901415677,-0.01707031359824837,0.14233633840923954,-0.004895672146068975,0.025271984606660844,-0.006683157716605793,0.05360934070990838,0.042519652760500695,-0.018237334508513198
POMC,0.02459975501013323,0.054344870159583815,0.011519157103046254,-0.017762652420191073,,0.0015891099411522714,0.05539835075729194,-0.00959625785268023,0.01295228853711121,0.05297884597762191,0.06212465045290825,0.013439076709993761,0.07939865560970218,-0.026928971221669793,0.03088156949673109,-0.0110366775510008,0.1327839569180293,0.012994626601193661,0.0552837299047592,0.04652277024017758,-0.004324383270777378,0.07527771182662231,,0.02062187550843302,0.005758165122412991,-0.05524053203579398
CCL18,,-0.11081516588441263,-0.12199463689975695,,,,,,,,,0.052723676141352066,0.2232843270683745,,,0.024555114442497174,,0.0992175822445242,0.03437847648851143,0.017587135836346763,,-0.037334296932903355,,,,
CCL17,,,,,,0.04069714531758658,,,,-0.0190252498201263,0.01881876648571843,,,0.004810902124680453,,,,,0.050163268533887986,0.006857553199304451,-0.001872783658482709,,,-0.031750937335559656,,
VEGFD,,0.014021842694553146,-0.003735060017766031,0.0080918592436377,,0.015883851832517868,0.012434065788904056,,0.03051776556428032,0.034325859071557364,-0.03582571314478249,-0.02340021578443186,0.07914157264357213,0.004973635158882357,,0.1408706243794565,-0.0314879738008151,,,-0.019380681846587946,-0.029410025441280446,,,,,
TNFSF13,,,0.050146470993088936,,,0.012648619629276447,,0.025524103961941588,,,,,,,,,,,0.04182655678156404,-0.030778540419547265,-0.015403918999390552,-0.03333828315955865,,0.018141559231204363,0.0538280599672825,
WNT5A,-0.08263966670939109,0.06390306336207548,-0.03267170367118815,0.09871964517579368,0.11351668139568064,0.08682132404526567,0.09316490013720768,0.039188471436046986,0.16991134274175274,0.02512957153501124,0.005608726140887975,-0.037503074376111056,0.11170680257217876,0.0646965973174981,0.0231536418127627,0.12978213792010754,-0.05730084221723118,0.017729477173733233,0.036223350420746175,0.015088726361940122,-0.021421414739150713,-0.009833806371519165,0.0826355546686123,-0.00917906044628735,-0.055833584552563126,0.028019642479403615
CXCL8,,-0.17742147640253006,-0.1390216439012771,-0.06680193487051443,-0.120929784456312,-0.12101311320664886,-0.13966833340244442,0.005890761994006908,0.0845926781247549,-0.09639686877489297,-0.03228464025282214,0.031345639276255326,-0.018313144269273045,-0.03455804254428703,,-0.23764582145677776,-0.005565905115500191,-0.08791591219639236,-0.05076659460363355,-0.062410313549757644,0.0309861444329811,-0.03748775167750236,0.044300979036289816,-0.058801096400608856,-0.10968902150312956,0.011418613361077542
GRN,-0.01653110487709532,0.08996408956746692,0.14893639888483476,-0.02771383973040671,0.09018691221178017,0.017473786360963653,0.060625757797250115,0.08321914049030409,0.21416507463371834,0.015621496256253682,0.08392867977685134,0.08701905771200781,0.08303848661354163,-0.00895169070849791,-0.042895760902920806,0.12208118311880016,0.037861629751920214,-0.05275408746497719,0.004797623174213697,-0.050964067633163954,-0.04974065019049565,-0.002518632771738245,0.058628714145893795,-0.003591804964237589,0.038305972031832045,-0.013363041192000491
MIA,0.06882806401421349,0.014534854578041741,0.0038919541147774553,0.008795240576866075,-0.01739718537757027,-0.04787058161491572,-0.03671937134395577,-0.01261859135387634,0.12195948390460189,0.06455228636334394,-0.05934312876099509,,0.07125225563489831,0.0007756891127020869,-0.03456733733288516,0.05310026727027287,0.08284717546266093,-0.01551080310143328,0.0469578640764475,0.06426871943015322,0.008543255088174702,-0.08347196419730155,,0.04634369887298698,0.031121631148434553,
COL4A4,0.04801870113850144,0.06598627187288092,0.0456953568443327,0.006745224790990417,-0.02424767984794919,0.023683124755089924,0.07845126378520764,0.01887239786743296,0.017190052726529195,-0.003972142301896888,-0.0031367228666567097,,,0.04147011831990102,,,-0.02432961442991371,0.038702406967305356,0.03642681957624,-0.049224335147450234,0.00406262239894936,0.0034444307833344737,,0.05368714328336669,-0.049357905089113766,
TAC1,0.002937011478352531,0.017345360625767674,0.03885524578891102,-0.033965888840300384,0.12797249248400722,0.06430587074564996,0.09776790951844494,-0.05283740115123903,-0.24096767623704107,-0.015584285893091325,-0.011398178301693918,-0.09929891136005702,,-0.13578131400839527,,,,,,,,0.03620240342792045,0.006512932166772094,0.02839949082694799,0.03973191553654595,-0.03944453839241609
RARRES2,-0.07423154625146466,0.06365497479416522,-0.012611090701017008,0.045048834717228085,-0.07791944354709271,0.09583825051806943,-0.12984574497676465,0.030965007774000727,0.23179276916439434,-0.03739418372164669,0.027856947360730893,0.018974963232817325,-0.10225556732085565,0.16920748575913755,-0.09747525688884999,-0.0017395925936127402,0.017621353980279333,-0.03828094116179067,-0.10016511684826841,0.008588403024951808,-0.05648921741399008,-0.09866201003672564,-0.07183002356505726,-0.05291308657792992,-0.09545012866598661,0.008274519252937375
FGF7,0.05486567804633322,-0.011367001558693893,,-0.000627318315987321,0.06712013109584411,-0.02268671931894438,0.06657682219578683,0.07301840762343154,0.055130058397761306,-0.011407272932507304,0.040337487926845966,-0.03185685982956679,0.04751514052028829,0.07879796863797524,0.05623889519537485,0.05093563223663801,-0.10736369767235283,-0.09355665623441788,0.03721300929793225,0.010053927174177487,-0.058797778805707565,-0.03785012367282178,-0.017738589585550496,0.006968982987682661,0.013541460039083561,0.04354292093101076
EFNA2,,,,,,,,,,,,,,,,,,,,-0.009369070783354376,,,,,,
HBEGF,0.07750495969014068,0.09892793984664672,0.10898015550233678,0.0004276394814897015,0.013799372997817746,-0.05952739576239879,-0.052596674044667044,0.053031580948188814,0.11617518591414969,0.009702638425482583,-0.009867722014912702,0.02650845714726341,0.19667129125729352,0.06928168287885182,-0.06425551830829,0.05962326494652562,0.11253544831659618,-0.037537116222000316,0.005348126111866098,0.004767316318956416,0.024771372423118245,-0.054422113849050754,-0.02115189992592425,-0.038475307800941924,-0.0013514931006213362,0.01729922332213252
CSF3,,-0.08292810860196914,,,-0.026445821631810154,-0.107238212591246,-0.08488674084059168,,0.0514730687351373,,,,0.005562297389331753,,,,,,-0.04398577567574798,0.022868012463571563,,-0.08084428726616268,0.13073414285222248,-0.01929868566859392,-0.1026829160369472,
PI3,,-0.07179471247839152,-0.03739910080610627,,-0.09314660823044289,-0.12440380747132707,-0.06011704148371889,,0.04391740288129527,,,,,,,0.0825068725163353,,,-0.07806496330900445,-0.05514470555020895,0.015092033479304273,-0.1446557794124141,,-0.11723527394615467,-0.11085787087042823,
PCSK1N,-0.037571215597803076,0.17575832150614576,0.04709086876505594,0.004456123727443172,0.05711130983097355,0.09977725486577134,0.11865691815139628,-0.051390539489296685,-0.14598905322391173,0.004149520320245805,-0.049387094010133865,-0.023450564793690627,0.06041397001682008,-0.10883950071849478,0.06607041285770221,0.1507468016746361,0.05444869030402035,-0.050946285914692135,-4.440337097083822e-05,0.004899466662498848,-0.07129186445636662,-0.03631046841457411,-0.06899042046967814,0.0978415501314916,0.10116039706580629,-0.041169166578852195
NTS,,,,,,,0.00040784052619315656,-0.0315223867475047,0.037087418172592375,-0.029573353344807464,0.0986825030900407,-0.012577327098697846,,,,,,,0.01350953084286712,0.008666525684954922,,3.297163432022345e-05,,-0.02158100226616648,,
SFRP1,0.09312243514507426,0.02828184507990848,-0.03164957519602761,-0.004776828521986951,,0.03573030668101447,0.0013247060171532046,0.051725421706104696,0.06278367212676843,-0.039313965424627395,0.020343336513048337,0.08973340356422126,0.06391882760886124,0.062137202151870775,-0.017191548455057416,0.0731835510920226,0.031553828854578754,0.07946899332608368,0.0532591906424739,0.08209324527511985,0.025669006760843084,0.032456032933918064,-0.04514220690993468,-0.012766907358279051,-0.015273523629599666,-0.026706459257380993
CXCL13,,,,0.016851431818677414,0.021585389440113227,,0.01261054543308426,,,,,,0.10707469391661635,,,,,,0.022244634782821467,-0.06360485857255638,,0.025590594475109998,,,0.0021862955911847518,
MICA,0.07523644455535251,0.015718078542449363,0.07327366202508218,0.08459235634507231,-0.054288765585403624,-0.04474232701910399,-0.03864270924036183,0.042754785184367504,0.1107301074987983,-0.04392892495700444,-0.004838713134467422,0.02830136850479526,-0.02556093306359039,0.07209085253171144,-0.02180767580614981,-0.015397976447149632,-0.05823775839405623,-0.13862412833816334,0.027241670211447584,-0.022032707864032493,-0.023163660993843125,0.047343728468162496,-0.028495536323704836,0.003691855763565083,0.06853680547672986,-0.00395698571822519
TG,0.052799357612280766,-0.03685172684056038,-0.035504497529464364,0.006076935461905734,,0.02218395878740721,0.03431448277049419,-0.0031039613008960816,-0.016153843929308576,-0.05726859040969559,-0.03490531945821212,,0.040397848850133325,-0.0030632098284114934,-0.036534520873315844,-0.03444776561177491,0.026286155251784103,-0.06378691883159886,0.042406931528694986,-0.007448774603849531,,0.049978425311276525,,0.004372679283072967,0.012375419408310813,
ADA,0.017411013950660647,0.05046558118260158,0.050770709756955,-0.013413858547119054,0.057647934888533967,-0.012441494706919626,0.003244771203594886,0.035806936951463905,0.1613967786238458,0.032760066298008476,0.011382496028758573,0.032918094933308543,0.23424945952206153,0.10153781247306072,-0.02800723383266949,0.11218304371883514,0.02468250301408858,-0.010344500023284636,0.07985997208378261,0.028216843466491278,-0.104498019546307,0.026884207961954426,0.009875872675868196,0.0028446289858223167,0.060182729910049686,-0.0414753401366197
LAMC3,-0.006795749808904298,0.03645106061990915,0.17816336154394194,0.007156980466923097,0.13314722877152635,0.015309295405347638,0.040881775242182436,0.09832444750789782,0.14233232082184388,0.03447297180378628,-0.015589609819614563,0.0476870494040344,0.12446489784041587,-0.03940977493827316,0.05549996751711468,0.19987830287139288,0.01935281120512208,-0.005369075534435969,0.10744437896614738,0.07385444845572615,-0.1048452015383667,0.028492972650912524,0.08459031876227117,0.08725840711186189,0.07273414515797647,0.0008319060200976709
CCL7,,,-0.02161966753408574,,,0.022669390016360747,-0.056292988791798414,,,,,,,,,,,,-0.013969930855232618,,,,,0.010478566523577496,-0.15935141678966996,
NGF,,-0.0073638640251143354,0.003045878733743097,,,-0.08676792438408608,-0.06012008618906819,-0.017577965892568468,,,,0.016631703723701843,0.10961498661710328,,,,-0.10453290847101002,0.0130235323036074,0.045938211819640924,0.004517806062284985,,-0.033716275934569516,,-0.017885054841447572,-0.024464477457301473,
TNFSF15,,0.092636731163758,,,,-0.04941203755083601,0.0682782169852299,0.039505188815988836,,,,,-0.00996274393306228,,0.001732596074554283,,-0.019695933185264743,0.033419684214546434,-0.029872412803447813,,,0.025695907935040257,,-0.041308074792668945,-0.02607115913373816,
HMGB1,0.09175937777201916,0.11740401700092479,0.10398214008929839,0.002071383048390798,0.12024094283537486,0.08149622714545593,0.04622862222377106,-0.03779581681596274,0.21384653301164946,-0.0007035087805913172,0.037980306293387674,-0.013581467326670683,0.23764109018465607,0.07037441606932168,-0.03125503134589766,0.05542592629130555,0.08524509463097601,0.04458964546376833,0.00839007298270103,0.0009133656729282666,0.02594191707553335,-0.01106233237258693,0.11418616288624053,0.011400474100240051,0.05961036478868759,0.015043627835202692
ITGB3BP,0.04631197022626102,-0.06689858653501174,-0.006433545143604206,0.021731612695531644,0.05500758961086244,-0.03901560165829098,-0.005641501080867351,0.01600436909256464,0.14849964775947738,-0.04582223825426675,0.00988798683520749,0.01890294511219421,0.12012428148656823,0.09495071583508702,-0.12610259877878763,-0.12702830893733352,0.017466825940260857,-0.06151122545995894,0.011477662506437203,-0.051423058551507514,0.0488502555849394,-0.05349456008096448,0.011895573172733652,0.07455325428600547,-0.04558137659698496,-0.14327297274607795
AANAT,,0.03239029246701673,-0.005482209839369116,,,-0.014378966318660567,-0.00038233739027907415,,-0.018963678829024742,0.03083825027794674,-0.026506872748538163,0.020496822968243025,,0.011725337979384626,,0.009763724624811716,,0.031164146419782112,0.01782269212153128,-0.012627839760819947,-0.00019829747868345128,,,-0.013426212146372,0.102361605278327,
RELN,-0.006846074228367809,0.014632682055632352,0.07819902268935747,0.02504807925250598,0.02244362179453354,0.01960395064214331,0.010861437929965701,0.04923055731678207,-0.13493462187402805,-0.01977806171885306,0.03997810717731335,0.05133127903574303,,-0.06302564717534183,,,-0.02647241165921229,,,,0.04221779252538829,0.032487351306911966,0.04157832063750939,,0.03973696027137856,-0.0024679053822795676
IL15,-0.025706942806809064,0.08396439528977578,-0.06491227896176249,-0.002244046187166332,,0.006195005405148083,0.008984529002655499,-0.020373338533021812,0.1057479071338127,-0.03197178187011909,-0.02174554760824782,0.006973459774905454,0.08854148296422412,0.0008371436122904376,-0.010974743585147098,0.024172246506526746,0.041989910402881886,-6.236492905437786e-05,0.0016946856653944188,0.02375879399536366,-0.09839237200663045,0.0026043480197283893,-0.06276205892990853,-0.015490011552722005,-0.008556608603202677,
UTS2,,,,,,,,,0.0867454556382284,,,,,,-0.08273416759012016,0.031861515361968226,,,0.01940576653984619,,,,,,,
BSG,-0.02995965578259424,0.03426758258001331,0.09100720211631005,0.0953433866481853,0.04455168011820298,0.001421331662099485,0.003223023256863622,0.009543874138730545,-0.10105488206284077,0.06505820495881506,0.08147138698675573,-0.05061778221197986,0.004128896154518549,0.046330335645365865,-0.03626465604402934,-0.04974151263505198,0.01899051276414117,-0.15275677546508604,-0.06437840001111432,0.014735474872100016,-0.13465557259294175,-0.07310160732469861,0.09871384225819795,-0.007946741189673224,0.014485546422791838,-0.07918399697602857
ADAMTS3,0.0016484071810445376,0.04091316941612856,0.005545057574353017,0.03437475416632915,,0.028366275957920035,0.05891850201656658,0.0071016942763264855,0.23296035657018505,0.057253989079331595,0.03033691512973021,0.00645952671440841,0.12107990294947879,0.017610202832585523,-0.04627811776202394,0.23205819100051575,,0.008654231962354706,0.03978237935248241,0.010970648980712795,-0.0369114134738422,0.05394209331666734,0.04830690631246094,0.04531606885910739,0.05012799754712971,
CD34,-0.0547731461565253,0.10787745856172982,0.17337026226357036,-0.014626239949874355,0.05447717388668165,0.012525970968810663,0.09275290262055155,0.011721697914082141,0.11386226711338117,-0.025757487960659502,0.013232219849360842,0.018432771945055187,0.16709577039254692,-0.07182860315189912,0.11941225125504401,0.12837732393386145,0.031392890398249385,-0.050237403770785755,0.07074374808675428,-0.012613173848631433,-0.04447944580932014,0.07782551488020938,0.04213166242741698,0.04449734947523967,0.05130033643650697,0.04434524728597559
CCL23,,,,,,,,,0.055253452813214,,,,,,-0.016932791886009543,,,,,,,,,,,
PLAT,0.029038843719231915,0.10451388371422647,0.2210042382113615,0.0319532610342214,0.20295977545934946,0.19033297215617626,0.09240225696690361,0.08431033903346075,0.19269702731851712,0.07999811483119876,0.006494397421782691,-0.04403762748506491,0.02755982156634077,0.19423924734603393,0.04010151365593601,0.12902899008118,-0.0034140282691144746,-0.024024849528213852,0.09487001537972611,0.10612956918838257,-0.08284510244685588,-0.07440261584302037,0.0890869398643204,0.044406437447644644,0.15213345952924898,0.02282587669124823
NTF3,,,,,,,,,,,-0.04106421938115989,,-0.00862350478333953,,,,,,0.08718222292388447,0.04702364012844542,,0.07423864038125713,,,,
LTA,,,,0.006609114230598248,,0.02163604342109553,,,,0.0325308375440293,,,,0.01595837731693622,,,,,,,,,,-0.020851792732877027,,
CKLF,0.003259873063652232,0.0611072637195586,0.09292106064826663,0.03703735461135136,0.04734914285990495,0.09037962723093723,-0.002244098877751392,0.0851672252893994,0.23579878084471073,-0.01932831814338827,0.024421998230059163,0.04315622746387368,0.1620404138841289,0.06639213800047486,-0.1817375407375663,0.06827257235394518,0.014355916381214102,-0.002378473818175661,0.026268828596974273,-0.04969581330322946,0.028645135928951584,-0.0017708576789229125,0.1072746816580598,0.011336597284118118,0.03612567285750829,-0.07271410857173559
APELA,,,,,,,,,,,,,0.030034413283392264,,,,,,,,,,,,,
CD24,0.056368673269058756,-0.07239579728828545,0.10663393099726219,0.05410404975291493,0.03321714667002505,-0.027961356434614736,0.07526248667169945,0.046564247114047615,0.0030942557309958023,-0.03869689791928118,0.021434012698685827,0.0487458750961494,0.18078874731774588,0.03609501773646233,0.005911264966009444,-0.002926171263671123,-0.01941697667786776,-0.19428689069863783,0.06540825666202378,0.049657381072629195,0.02609170349439192,0.08791981308214349,-0.003200814746083793,-0.008931549145076717,0.06482075051842659,-0.1340651131598009
HSP90AA1,0.06827135411909008,-0.09140361394670768,-0.10337702387302813,0.011012023403793014,-0.10916461206663552,-0.011136435683299428,0.03668454551188076,-0.09504249847024011,-0.23832524821154796,-0.048011871311967665,-0.0006793632483803841,-0.04247759246433572,-0.058713898544252435,-0.18946009755935672,0.19789395024590659,-0.11442023826187102,0.030871228591924788,0.09754999369063293,-0.09857229889187193,-0.03846777726109886,0.12826243985090127,-0.010425026892657665,-0.0417606608963019,-0.031591169128505125,0.012538307974768842,0.033937102494517674
BMP4,-0.006476412111106692,0.002643416770705738,0.10264987422296423,-0.007229786506497844,0.00866425267316366,-0.04781808478295428,-0.02099216576231981,0.03812614991616745,-0.0661690928367589,-0.034404468144824556,-0.0014427804947020938,-0.05304854364579974,-0.00571324792198324,0.03754139129084425,-0.059312864529984854,0.034292395983556975,0.03310120013061368,0.0287282819900862,0.08917856281967491,0.06257476497053618,-0.14009466531362438,0.04852571640841672,,-0.0033923049378782022,0.026066063740817113,
SCGB3A1,,,0.04460514808089419,,-0.07392862751564856,,-0.0009403602300085192,-0.04912924347904518,,,0.02881917704195458,0.10792407027143638,0.04898505170055574,-0.015380418687203988,-0.0682574394322344,0.012719020793851017,0.05123054907646589,,0.07102160762990979,0.0036325811304372692,,-0.00448324888099852,,0.00799392500179124,0.0037420473760021535,
IGFBP4,0.013982008218103548,0.03237135960464361,0.1284799118776925,0.024721211535937412,0.08351505174619157,-0.016045523325298097,0.044681257494624725,0.07407213923817253,0.14917343962689908,0.003361111745782127,0.010026197456134938,0.024469464100492683,0.18562349682003407,0.059021089403939235,0.09749670103248428,0.1675485530950237,0.06195926199746461,-0.008596017491434113,0.0021845843888366368,-0.05842901574143928,-0.03531118679477422,-0.07195093032715143,-0.040860848223153765,0.023626712846264355,0.10769367369885896,-0.14911688788848573
RSPO4,,0.03852026149485032,,0.02135543048859815,,0.05371104422001734,-0.008965475273025334,,,0.02968096581654953,0.015106808441174988,,,0.027534827192669448,,,0.031513822794598204,,,,,-0.03000658081198505,,0.04262911370035555,0.0005894671407314489,
LEFTY2,0.01883486661845084,0.019551189449691725,0.1273648690625934,-0.05583377043828076,0.1348037122791636,0.04680705790757666,0.016947301832463332,0.03369941953685729,0.149439034767533,0.006871141168214108,-0.027721025354128695,0.010524800809781628,-0.0029982447328715037,0.021306381923330987,0.024264594010682185,0.044876772485911175,,-0.037174453420194015,0.0013816645340488539,0.04018998204955428,-0.05908790165838333,0.07707272384738226,0.0601910550361612,0.10684547891579112,0.08170600582062133,
PF4,,,0.06261702398646968,0.05882397709274295,,-0.004182467733036311,,,,,,,,,,,,,,-0.0543235617837167,,,,0.057306349693602196,0.0034667165143512425,
ANGPTL2,0.08897427082862118,0.08363953837784167,0.17900289611769235,0.04399496771886425,0.11398473665574743,0.04792127045933849,0.0356193002137081,0.088714773896077,0.17630336934049148,-0.007582906974767253,0.04189969615109923,0.1414904569659922,-0.08015334073234792,0.15744673564985726,-0.015756193733462952,0.14158960692425077,-0.0828474039244311,-0.029912868972734694,0.08547374506956325,0.04481546998273287,0.01297695261457353,-0.036227699927927244,0.053183387355354515,0.049920515142039865,0.094816747688901,0.11267452295488638
LRIG2,-0.012144514970564808,0.06818280857722499,-0.011425267179346275,0.009838543877188405,0.08137653097208682,0.03451389396607889,0.01647290572324403,0.04606951733601905,0.11587741603584309,0.040278559838667224,-0.018231010249926478,0.1014714156963858,0.07385159587618595,0.12835336902106934,-0.006375405854548091,-0.08905467254510038,0.013234972848918765,-0.07125992472859258,0.02901815743745995,0.06749254336090921,0.05253125297221209,0.01809819415257817,-0.014092819222994407,-0.007221332438698489,0.0625645215862265,0.05181582875667891
ICOSLG,0.07210120667792798,0.015204545864175556,0.07551724387089055,0.010573302077837635,0.028079409539993112,-0.05862221165184067,-0.06510249752366912,0.0442673487071425,0.18444497601645488,-0.04703431081119649,0.025695021417365523,0.13127155006184657,0.0700877725155169,0.09286828139029475,0.04346183715798332,-0.07534681858702133,0.043696019588837426,-0.0360343116476596,0.005710420761738256,0.06533510630810702,-0.030472661115993706,0.05784617874414353,-0.04148704981384974,0.07020076264790001,0.03810766807165053,0.07511948748042141
WIF1,,0.013845266884241616,0.05247284251880223,,-0.058348213589450824,,0.09619999562458888,-0.07340069357904419,-0.18279939597070208,0.04727307026690192,-0.01623326317035108,-0.09273288312889613,,-0.12298118596638687,,,,,,,,0.062374477891540436,-0.033847868215831634,,-0.0052076828218705394,-0.11665777456103062
NPPC,0.005992463041640174,0.04835973433921573,-0.026925950373197494,,-0.03298564884162868,0.0426234042667077,-0.011207416586800526,-0.0038875012795522405,-0.03580196431099609,0.03356872015480607,-0.0034130630354642093,0.06716971033501547,,0.14650617785053732,-0.017902576701881744,-0.005772534474565192,-0.06749412394182813,-0.09963474016942643,-0.01884023435451318,-0.001035178326728646,-0.08321592728381508,-0.007555459315132749,-0.027634968932263998,,0.07535335184926552,-0.06969832036801445
LYZ,0.0025396918134121273,-0.056541431146881205,-0.00691030902179387,0.016101541971753078,0.01715169074529042,-0.010913885620094611,-0.107040506693082,-0.01713901610939272,0.19924845676077793,-0.020211633954275037,0.07851125046920664,0.05696204480897203,0.04230138891629106,0.050934197775620554,0.028043131874086382,-0.011709070765206685,-0.029956989595238206,0.01412711892626265,0.04845008482406013,-0.035738542294021854,-0.06354313583899147,-0.0582438210663251,0.016804804872274988,0.05384700775897354,-0.02582009716148582,-0.07758670076857432
EREG,,,,,-0.027878343571876223,,-0.02325074184809845,,,,,-0.012602939380404266,0.04995568752696264,,,,,,-0.02856058897521015,0.06832736505884372,,0.022362027339880124,,-0.03916847254782901,0.03125541536512687,
SPTAN1,-0.03288947662753772,0.1681611226561227,0.1221044267140248,0.023305383462964915,0.11831776692750987,0.17982806114786062,0.09654896046946579,0.00715534482101492,-0.11997837251609995,0.027157377372696693,-0.0059333541568839954,-0.0686895101696138,0.12578342861038108,-0.028937249546930766,0.02524182806964746,0.23837680816309229,0.0955714666622557,-0.10557323193614025,0.020129137224014146,0.08011126622298427,-0.0017937473164498883,0.02220834337983099,0.02584834415850121,0.16544095004793677,0.14018443956039775,-0.06317553571717971
PTH2,,,,,,,,,,,,,,,,,,,,,,0.007889030632498965,,,,
LIPC,0.0452477492606676,0.061518252875237066,0.005712534608710965,-0.008621984084091793,,0.006431200369651437,0.06073212637691774,-0.004383411127113858,0.1093853890123367,0.011070779195657786,,0.04369342648921198,0.01604891972216569,0.031028047846933887,0.05038201947317045,0.034375161847538596,0.05118804776536338,0.0021100054450748458,,,0.013001062493682899,,,0.005027268739083183,0.054088563635539745,
COL8A1,-0.0036777753683835844,0.03331259822180426,0.04664867508853823,-0.01264287137409539,-0.019499897981222494,-0.011011460723945762,0.053223936200018425,0.022256911548159196,0.12875681824115265,-0.016218130151956407,-0.021747614541385567,-0.03552548390906992,-0.1726302476590217,0.13992883004368892,-0.03339236881564721,-0.027988958437436023,0.0416370891697923,-0.017087311442856263,0.11317314478791146,0.09930187368655786,-0.06727567944539126,-0.04155513474807619,0.05414973915173552,0.07690546911348425,-0.0007955062258580644,
GSTM2,-0.07255222072553226,0.060055816074798644,0.005402000272504228,0.010180801969830794,0.03036531821309872,0.05008368781995205,0.025861884213864227,0.06575195097801911,0.05279039182905341,0.009127671555933024,0.056762696045559224,0.00110199736772325,-0.015137964662046912,0.06185475938688863,0.041032903899390245,0.07150328269534596,0.062377943889252975,-0.0642543021451705,0.04346151490457534,-0.001928146145441368,0.01964097601715552,0.02470893335048501,-0.013955634867709602,-0.019329719765678592,-0.01318081072290866,
IL4,,,,,,,,,,,,,,,,0.001030441571046621,,,,,,,,,,
SPX,0.08861472695698064,0.1440783066612387,0.028996748109508478,-0.05530863836501965,,-0.013272335808139281,0.0333074960895578,-0.02360804519255494,-0.07108751852861926,-0.024317131007852707,0.010844346319056283,0.1033648671823747,,-0.08759436427562169,0.09638992208611104,,,0.059829389176075644,0.008694580110368473,0.030930975454996824,0.13513676825215412,0.08798787005827155,-0.02042595023151583,0.08773597747772274,0.07436529129357639,-0.009678583899945803
MFGE8,0.03236962872698736,-0.00595081616042796,0.1121484887898948,0.06691903885229739,0.03575103052460859,-0.02394838570718126,0.11089198009620813,0.022930662935690013,0.12999660240040514,0.017648945790473745,0.04717233622219284,-0.10395132883155205,0.04881045833744923,0.06838693902152261,-0.004819714721752406,0.16355388378990415,0.0588980710488231,-0.055644801903065005,0.014618462271634214,-0.04235607509804575,-0.05078664665520063,0.0790729837548238,0.02735503784394575,-0.01303747784671498,-0.006792779364324531,-0.0561868714908553
TGFA,0.05678848506788712,-0.12071822209990517,0.06781241542168005,-0.0028397753516132794,0.04916824479658081,-0.007099331347531829,0.01844617309599827,0.010313060051569588,0.12755065450218958,0.03759033216916696,0.07854070191831036,0.06017555471599541,0.021442249590153055,0.12211848370661137,-0.05017328550885289,-0.14761365502631849,-0.08416177269473034,0.06065476605556524,0.03947669117210798,-0.003100946139689939,-0.02211817394945822,0.02292944153533467,0.03919532932838708,-0.05718237878688169,-0.008350035517502116,-0.03963860906805837
SLIT2,0.07025477097645355,0.08764304884386602,0.06293087561173162,-0.01851565007781274,0.06172692913721863,0.021615931881823654,0.08501037289062226,0.05702092538322234,-0.10817627005008991,0.01968698085716774,0.031126890860872492,-0.008978898140941933,0.0330697515222007,-0.15073978865305387,0.015854395833857705,-0.05403399121170047,0.09292029544414672,0.003227510013957248,0.019182321615702703,0.008504617254535905,0.004630703078374383,-0.05578795731794179,0.09402596022448824,0.014229332980849286,0.06344979908558045,-0.14416774175246366
PLTP,-0.017315072533896365,0.13081462559783355,0.013818270998817477,0.009729205416427519,0.08966377945668214,0.02353637549964287,0.0010728743936156203,0.023864134586573927,0.19957776131040295,-0.0010984728301955714,0.028853226019541232,0.04147206736875025,0.13108810662571774,0.033901615924559474,0.1331014429244836,0.03327125385652155,0.06748451166437315,-0.0988964528239885,-0.010008078382095826,-0.012013619555012593,-0.10840785906103802,-0.022093831585035226,0.08835987527298758,0.007229968393827671,0.0486147340944959,-0.04012096947718
APOD,0.06886084274837015,0.0789498014352307,0.05877037951137022,0.055734061104242824,0.12567430833070434,0.08782411592370692,0.14455466554848875,-0.02939472071400988,0.17941572470457468,-0.03456604853556259,0.035330557528438604,0.17287289328854763,0.08235450893331817,-5.712621322966627e-06,0.0832055569132207,-0.023422416341757804,0.09254599996017071,0.23895417462344906,0.07408893378116334,0.08776457331950761,0.09234237869416571,0.019339171100244284,0.011265904717458784,0.06668920534464577,0.018337871715887494,0.0390773676422571
B2M,0.029124282161119355,0.1637298517887712,0.12998898538907777,-0.0886877655184629,0.14743600027295026,0.043258922142610554,-0.06752343870769247,0.10907199850273813,0.2810263644854865,-0.14065388595607833,0.04878614020318996,0.07964719823795789,0.21529620282863468,0.027934705241248435,0.03073371847977937,0.17167852543911122,0.006738784815768561,0.03377643104713412,0.0388827011177266,-0.04855866033749649,-0.15199004525343793,0.022771196628318516,0.10802388559594016,-0.02192136860402466,0.05128090224638928,0.13045250885122794
OMG,0.042110023935084354,0.1960239926396696,0.09901634915337734,-0.033587994236934184,0.08061912446705023,0.04959155639599238,0.1047045792883791,-0.03917686608643095,0.0592198806454345,-0.030277385818844225,0.014189925549581315,0.11172320285412626,0.004265912014370806,-0.031214181161644063,0.0088118600874943,0.023636911455772482,-0.006881986649422561,0.15027821612730358,0.09251887986245436,0.11458030543879977,0.09607089298158648,0.060534746873874494,0.09617561608137547,0.10078372193841562,0.140020391112702,0.04328098566472933
CXCL3,0.0016758573052531964,-0.11851218896502598,-0.11958865427690074,0.005419980716973481,-0.04664043469131943,-0.124957758533069,-0.05795981645703379,,8.808343379063468e-05,0.023477737340827233,-0.044999502829505746,0.03262626898328617,0.1552936806199142,-0.06594112798297141,0.005413082094429584,-0.1611765328032715,,,-0.05124164064407229,-0.0025431791339074325,-0.00395507119598969,-0.03818678803740774,-0.0072771104370061,-0.016595973172631437,-0.0764833496662388,
CXCL10,-0.0683246911608025,0.02776634723412177,0.04269431410588305,-0.06436985957301096,,0.02421256367773284,0.03646697538125772,0.0974203906380889,0.19853925721724006,-0.04573940596559052,-0.021113658566784155,0.035120045758684236,0.002331699146841425,-0.034746585102867995,-0.006274654670344632,-0.04454296621800989,0.054478907674269356,0.044227567417873,-0.0852168375901537,0.029707828521541944,-0.008885698819243724,0.026480485331816534,,0.05899909869775197,0.09260917671977176,
RSPO3,,,0.03901816019075233,,-0.002160008903972862,0.02060208874130887,0.04218927757725615,0.020912606763189196,-0.09404563957995478,0.0375563449390183,0.016791472124724198,-0.041022613976484205,,-0.02913105737103101,,,,,0.022064565690176095,-0.012028487636880292,,-0.018098655581910077,-0.026209089427176674,0.03955056658844563,0.029425756494582192,-0.006041992304122517
CORT,-0.010418641377351824,0.010966439642455042,0.04450875989809339,0.026357098594061743,0.038179780491957506,0.057177759048456886,0.04228746700912692,-0.05445844767415249,-0.08727590496239415,0.008424005020581977,0.006290729235371675,0.04666494386537987,,-0.038905371164186915,,,,,0.05585833851803527,0.019864838106866657,,0.025725036650893013,-0.044511173301937226,,,-0.08986568866850027
NCAN,0.07564567731015327,0.30937292516055953,0.22349219427833644,-0.009903203159675262,0.08078750067427977,0.026171232957346437,0.16387254345494662,0.05562227582812218,0.08501608833124774,0.059437728219985886,-0.014822032868509343,-0.04284127484777454,,0.2650009573234854,0.14004999683577765,0.15021352226959192,-0.09021547810518298,0.033535129455403045,0.06704913034320596,0.12522521780488113,0.027460904164557622,0.11168467866995407,0.02778666506585734,0.098224972415385,0.11830810203248857,0.050431697135269495
PRG4,,0.018303022037321964,0.04127707551909157,,0.07155860507990681,-0.08861543405270811,0.018677225083519856,,0.047689631481614134,0.04982326839289768,,,,0.07480904228188921,,,,,0.010714456023411,-0.0031301332540226204,,0.014782679120383816,,-0.003476714348836104,0.009887804042606864,
ZG16B,,,0.010890234434831609,0.012608096944327489,,0.036721773643008784,,,-0.05352773193094079,-0.06800539282205002,,,0.041966950522433245,,,,,-0.007954974588660227,,,,,,0.0006201446014847362,0.014055239840631433,
TGM2,-0.02203194470787712,0.014823212014841533,0.001330934628840873,0.012031735994784368,-0.020017373481636694,0.00231568352427999,-0.0028472835025307227,0.04604356220709514,0.09275464299895056,0.04280439656885227,-0.012741114454382751,0.04100865423627411,0.03855571703423588,-0.07951697991635875,0.004100713681296217,-0.12338312063843383,0.04941230908666797,-0.0052301953764191805,-0.062300751317875686,-0.002988078248712588,-0.058470497511650295,-0.041796757681323286,0.04996364359009437,0.022761196108784604,0.03777742044939355,-0.04416063663498565
VEGFC,0.06762456638358298,-0.09238214059826862,0.03633037926140198,0.005744921118594104,0.011373074422328367,-0.04714984839432963,0.02915054104435162,0.06878742213642844,0.012951605365475728,-0.07469010036625517,-0.030062639885506594,0.05508120915034692,0.04648621927899039,-0.027622295404779774,-0.03263341491254411,0.07617275358975875,0.016632476831291473,0.014305304454182129,0.046901882808353536,-0.02414053431807956,-0.015899165679576343,0.04109384082621785,,0.007928329564483689,0.03050209831629023,
WNT6,,-0.0005686823526153168,0.0056399709218782216,0.02195719326388325,-0.01879398579589386,0.013881582155220772,-0.007368050013626809,-0.04426378181379547,0.03943377485767564,0.019279266136313224,,,-0.08037589183310175,0.011002344313312486,,-0.025884758143061105,,0.0190171302480957,0.04387614274033541,-0.025973329962078365,,-0.019193968809964396,,0.01346048578738796,0.017194754771178537,
NRG4,,0.04840239179738455,0.012390185898547464,,0.028647758823677184,-0.07172443136956334,-0.002135604449439316,0.0070442523404878644,0.04709036445858692,0.03429395533188107,-0.024850442975872158,-0.03916290364379445,,-0.007421228342476119,,,-0.014570839486737546,,,,0.008698583326568768,-0.018121260872664264,,-0.0663146017705622,-0.010392335839332363,
PMCH,,,0.03383271194387701,,,0.02943925938401396,,,,0.01779967986395619,,,,,,,,,0.08081211122599086,-0.02273614486559682,,-0.05027771432199964,,0.008501778254298912,0.13847565164256362,
COL9A1,-0.021091070622529406,0.12780917567768513,0.09164374298769039,0.055298739090972895,0.07085551982513547,0.020880844747674113,0.02911889074747252,0.08301209316839236,0.0763366677393746,0.05484257596906922,0.038166518129408786,-0.0754954719911505,,0.02207928179649159,-0.009219143339661806,0.11494739549204831,-5.8354710281372696e-05,0.0021645639559390805,0.07920014164833002,0.062713991633547,0.05639376096816928,0.014259550574446646,,0.08553023241601286,0.008233257018613339,0.061570199976421935
GDF11,-0.060116547941825374,0.07460492570959783,0.08482371716555963,0.02987370960491826,0.12234728172658894,0.04944947016839732,-0.02651343928545184,0.016520958146482217,0.14697657119999769,0.03358680829158754,-0.008666041509407038,-0.05012214445335935,0.07070094597605392,0.1385838538860868,-0.019802053448361535,0.10468059563596203,0.01823892411686417,-0.09016929946915414,0.06423754448492863,0.061412086452002905,-0.051442642507887944,-0.005098896882190521,0.024823159236713008,-0.013194678460240469,-0.005386932352412013,0.018259594308863654
RAET1E,,,,,,,,,,,,,,,,,,,,,,,,0.032215782171741834,,
IL24,,,,,,,,,,,,,0.05202421857376723,,,,,,-0.028503023078968397,-0.07235051288056739,,,,,-0.07967840434807183,
SORBS1,0.011482498880884392,0.14509863828114097,0.11074003570632693,0.000738942046102778,0.11191835822424623,0.07981092745519507,0.03640494010887196,0.0027073775429550507,0.0821524400203972,0.001181310498766259,0.05823592038919134,0.05188570990477876,-0.005238065550376674,0.06252193809124947,-0.015788478379087742,0.11942149955515918,0.0496134107755882,0.00992882361618346,0.044646546760646014,-0.012842781447620511,0.03587711067696921,-0.037144665522914726,-0.026199881137586856,0.05273955851305667,0.04762549746987471,-0.046966303742160445
DLL1,0.07765570885700143,0.12347853443429486,0.13287075212516422,0.066083418137765,0.09918824982123157,0.0770925786656653,0.12144858805889636,-0.029499849564633387,0.09337785752895408,0.004895132664256656,-0.007510756579876353,0.08917696231600901,0.030107864214371602,0.1334539904893144,-0.08677214969004082,0.024182330932905154,0.029546831697938983,-0.05718550672476384,0.06616738307344935,0.10768100962911771,-0.006138178505047913,0.0334373213775007,0.06342183853053242,0.051505165386705645,0.09940642931117491,-0.0446756565414182
TLN1,-0.07892543996677877,0.014472255109724847,0.09365837385028558,-0.020811066157785003,0.06266738218685858,0.08285470584612747,0.044607523100135556,0.04404864985667408,0.2636383723914234,0.059897827132497014,0.03419632553739126,0.10370779156791908,0.13276503990563268,0.20013270297381552,0.08044206761425259,0.11201026229953419,0.06283898036655917,-0.08735573672956587,-0.04441549858236256,0.034435161758055596,-0.12475016265073893,-0.009648550448441815,0.04437661932709618,-0.05425125007113192,-0.017114952149381066,-0.00958606660970924
COL2A1,0.07722662713383262,0.009239875190684001,0.10046328384499031,,,,0.033166170523289226,0.0767165749909372,0.0732766002677381,,,,,0.03552264636821443,,,,,-0.008115423671588006,-0.06124055963082071,,-0.035873565414776494,,0.0025594408651960386,0.03550160481670528,
SHH,,,,,,-0.04759117097264445,-0.004307481559809589,0.03289807989003703,0.028139005397601335,0.026796286555970616,-0.00548502525986111,,,-0.025356562565428203,-0.018440305681717617,-0.061357535959541666,,,0.01943925069581049,-0.006411276784369062,-0.0618254680192556,0.02021566664676713,,-0.06045508721824942,0.031350642746137046,
PON2,0.08149188069580901,0.278796136496893,0.20342601766075413,0.013304116012404828,0.22042761808300607,0.19335310003866205,0.1258680619986015,0.006518945621932985,0.3113349323818784,0.052644691531711925,0.07221382262937212,0.11815950767241519,0.2359719173642189,0.18045293444216617,0.020239450090501786,0.16824342260349992,-0.019045172515691326,0.01161551727308842,0.06989358175962503,-0.02331809978197884,0.03959355730434272,0.09118066714244166,0.0025656680798647664,0.1369698578903667,0.12829312379474345,-0.02287187972371791
ICAM5,,0.0834626836887539,-0.01660385305456197,0.016499353436568897,-0.04970977825120981,0.019030058190979058,0.04093728360478899,-0.06830720807949255,-0.13235472727185615,0.013971225728285052,-0.01805576184301337,-0.04363376327791143,-0.0011235465085206076,-0.12857111516469058,,,,,0.09378131936669842,0.03596429601710764,,0.02463205969519759,-0.06462107857476262,0.0023375917245299217,0.027936096705772913,-0.0020936516562430007
HPX,0.07649795761986035,0.0967651331608463,-0.04577527378368417,,-0.0055724693379500916,-0.0056495280993619406,-0.045462542371245356,0.010954764285350667,0.03348647659354342,-0.003962924977325401,-0.02295308277013481,,0.03662810703948977,0.0689564706099003,-0.061725769071274875,0.12089197222804492,0.03593864230527306,-0.03298442788551571,0.02303783553362649,0.0010879095353198845,-0.07559724420323292,-0.06256371322692005,,-0.026559123677721806,0.023637119305316836,
SFRP2,,0.038680557111372575,0.019585455559682143,,,0.00642028104335896,,0.03509423177544699,0.0005474978709030924,-0.03918978149278017,0.03591601855347119,-0.019482241387254445,0.037867060017516246,-0.002790505132751117,0.047970875608076634,-0.05906634400220374,,0.0014412031432522107,0.03412376897236519,0.028629887847823974,-0.013755767264795405,-0.09554803279063964,0.016380917783921315,0.04238065621954941,0.05314003201241661,0.03062484142133354
CFC1,,,,,,,,0.000678598209572312,,-0.025555582890182532,,-0.08296550237052014,,,,,,,,,,,,,0.010225705886487397,
CD70,,,-0.04970513051860076,,,-0.10473378870237669,,,,-0.013382684806446892,,,0.058257002656178,,,,0.04420733653317284,,-0.08044060378296997,0.019765369985073087,,-0.032277114278957644,,0.06430954047736055,-0.12521949823521913,
HP,0.12177187612404203,0.21303357757212515,0.014172419608570137,,0.10114116916382523,-0.036706473885237505,-0.0005977303842604728,,0.15510835806649365,-0.08259225481175259,0.010929322727116827,0.019249392112780477,,0.02552953846734491,-0.0018465883859246693,0.023674218071027764,-0.1147103896179053,-0.09492903007755821,0.039136526615809984,-0.061495271478839805,0.013420231644745654,-0.09340800705173827,,-0.0038900415105636746,0.06787046091806072,
CXCL2,-0.009013364464251269,0.04031666817427318,0.030940679710091505,0.018270910831817453,-0.06860403293986765,-0.03903148554310336,-0.020981118625448093,0.017310951028171064,0.069069074552882,0.024099161460535177,-0.010867751244262916,-0.03480206017263753,0.21078862407708268,0.055601947717253936,-0.004640741530863676,0.09161494215072515,0.02870342528160785,,0.010402208759061372,0.022853062881920752,0.019782473965976422,-0.03424631597925706,0.0018062223275664543,-0.06759456700772049,-0.05416947651561788,-0.058327675418975676
NPPB,,,-0.07530695883436597,,-0.10232225962274061,-0.16876936102683304,,,,-0.012683477283460509,,,,0.03808305438125135,,,,,-0.02159766510111523,-0.0645902901523353,,-0.009194677097211187,,-0.05522693055004516,,
CCK,-0.01421430052430646,0.03983943536096203,0.05665965145693213,-0.0020055001187252097,0.08534757960802122,0.112284986251967,0.11268064702209397,-0.053283718068324444,-0.26435014677493435,-0.05491297354683914,-0.0451357475025472,-0.06696875004629821,,-0.17535800025175166,0.04854936149531619,,,0.0340353784796148,0.10920623196996597,0.03576321939238391,0.01778666579578449,0.057233507874298616,-0.04962588948388233,-0.039192827085278284,0.08429468053258551,-0.1499187366273393
SEMA6A,-0.03056742670053601,0.2074490825054653,0.044781414704957556,-0.008208248959779686,0.18028572500840068,0.12108374235888975,0.07537189107224171,0.05543937748838943,0.15664284937997125,0.04323438001469248,-0.003744323917758476,0.07592878881000313,0.04981800971365047,0.2092602678688487,-0.04466837342677182,0.17613355118414803,0.01571088554013246,0.04782240651636634,0.04237166502546121,0.07297549427356745,0.061598576478227876,0.08909980033572588,0.09927411644255094,0.0574724908641473,0.037839395403118585,0.09464462550954365
IRAK4,0.075194402845804,-0.0941531073647489,-0.010083284000718744,0.024184187383804033,0.11355228493355507,0.008526512641596677,0.030905655074406256,0.04807392113202044,0.12338885296091953,-0.011579214676680417,0.06348430019420805,0.04857026753768836,0.08249937066518796,0.0935213884510581,0.012822917686404913,0.039782059558473644,-0.09483132204952069,-0.03641112344507256,0.004128118371726371,-0.0013093245506064315,-0.05464131618461331,0.0073810565999803774,0.0611911446301656,0.021958959559827303,0.0388073672400836,0.03104655794996969
GSTP1,-0.011475376282370718,0.12482117516053257,0.008765080207016208,0.026981959061158488,0.05654838091439044,-0.04386573681344111,-0.018593013353889232,0.018916102850294644,0.2550646477557573,-0.039733776671323336,0.06825898232872912,0.0926592727447529,-0.01043662703619028,0.10921638543189183,-0.11095352490454473,-0.02048018256402638,-0.048709119529225464,0.020404718240146582,-0.030767135448898583,0.0451701251096622,0.007338306179502354,-0.0489109297764825,-0.053907011865769155,0.07050447995698061,-0.0046666354635223435,0.03633683747325707
VCAM1,0.0226763639522232,0.0793941423226322,0.09440187970848336,0.01266134242016935,0.05172555370060342,0.019014886898155108,0.011693724432738755,0.02900585654170692,0.22619683393865417,-0.03879898693125028,0.039100437163884796,0.09143501919579636,-0.018148400409346722,0.07526699687299854,-0.06044803880372443,0.003017900203718786,-0.043014528069891526,-0.07707404292986819,-0.05246066740676827,0.04927912645955216,0.05247797532827816,-0.0047248101167952335,-0.05235007592376972,0.07726289406906019,0.027388370546912375,0.04168147346782762
NXPH3,0.0046045892583859455,-0.05881365242588939,0.08249672065723737,-0.021950807091364738,-0.039392324075058556,0.0077842260259641275,-0.029970597770459663,0.0350118587126313,0.0332728584112328,-0.008334532569352916,0.07978282214768373,0.008609546059505136,0.021932519805121925,0.07096081220410776,0.0016675979297048288,0.10282024428684647,-0.04978915880074989,-0.03024109390323231,0.06646424360688799,0.04067973101853827,0.027324759383855837,-0.009392502255712283,-0.041108612849659235,0.04837245677742424,0.069482377346336,0.0006775310534821427
MTMR4,0.007550791065417133,0.023786041735838412,0.075333096188182,0.017545233914180638,0.06757837082660521,0.012043763653709778,0.045547769029310334,0.04407048230392907,0.010073284118591815,0.021477822995075658,-0.0019642649875475345,-0.052464227810298664,0.11812897620795913,0.04227929883233625,-0.09402869477429152,-0.05401327203985962,0.04364293720545916,-0.01601127475560736,-0.007529937761018715,0.024566974318994638,-0.036401249562303895,-0.022670247721605183,-0.00038954778450698164,-0.014581535711498039,0.08120780603606123,0.09633921084671182
LAMC2,,0.02344448161715254,0.009960226487404243,,,-0.11065860384680894,,0.018334575363113507,,0.002606196190318653,,,0.08039841060393563,,,,0.04715667990674855,,0.05201749976441191,0.05769559449054557,0.00962055498768009,0.027775676428717515,,-0.042543869043312074,0.002355000527259662,
IL10,-0.030917329152513866,0.05151821148281959,-0.0320162984042847,-0.018731228379199813,0.029212301916494557,-0.03314356470224636,-0.0019072900745952864,,-0.0032959617526032475,-0.01984131629556028,,-0.03872795945720194,0.07155771050866293,-0.0064443048513311355,-0.03871027116111813,0.017261328368466753,0.02409124818398058,-0.03218940013409861,-0.03123746150648799,0.04963137534630149,0.0018821689958604913,-0.009919239833120848,,0.026389289299491536,-0.02354271336383551,
SEMA4D,0.01675618042215929,0.0648347535348669,0.03989960343848241,-0.006138188664528114,0.10043785867945516,0.054189925684274505,0.07880272161470257,-0.034696324786189,-0.030768322006913883,0.02026118821487365,0.04788039061975906,0.15441411222241708,0.054477806419506766,0.08034753914508351,0.04239535722717855,-0.0031079494108914355,0.013245671401047501,0.1681111102733549,0.13955092872963737,0.06421910285587495,0.022000025055616226,0.09104257602432918,0.07437738027940641,0.052409403803660895,0.06981386597716398,0.14071912695811745
TRH,-0.011213525971108302,0.08742833455303599,0.06341433619958019,,0.02857790839456785,-0.03798325745273113,-0.015559246264802573,-0.007837080717828728,0.06911366853692243,0.01791724033403093,,0.0010897670313031993,,0.062169038192587685,0.0041287206528466056,-0.02183227994076613,,,0.11421908463369292,-0.0011437495500764244,-0.13140419457975772,0.03461180732883855,-0.014799279652659056,-0.007041953070313539,0.0405743085006994,
SEMA6D,0.010388448750595953,0.23365786422960555,0.08123563042606187,-0.015149521888154303,0.16590590448939016,0.0709481260986004,0.10237931482311155,0.06906030534256447,0.10594588009633753,0.13375246484735986,0.027052825117192543,-0.034657263982784396,0.0011804213781263545,0.14446803319845594,0.03428242419432373,0.053849579496944855,0.013289213905537122,-0.004264398130511904,-0.03645984361551454,-0.06124987498091315,0.047247558093047,-0.0012000539830294725,0.12488328245949763,0.03312340871481816,0.04743126782073738,0.04273669734682784
CEL,,,,,0.016768989600990138,,-0.004115126339039847,,,,,,,,,-0.054626143016514396,0.15802727712354167,-0.009450388102464293,-0.014040216709924646,0.0142275704327921,-0.024211961331311625,-0.03752806873253661,,-0.008806015873241,0.035173147046405416,
PDCD1LG2,-0.02293163808269989,0.04035166945636077,0.06418978889504662,-0.03683295848990864,0.05475850606424724,0.02569696504273797,0.022502703933384535,0.09226428484625279,0.0513873229484922,-0.059714467392578886,0.006400487226403986,-0.006854582220772,0.06308399285265083,0.01914501156256898,0.08389766009925734,0.00039126427655188653,0.029761369030279726,-0.060044412209143166,0.012466881986441532,-0.014435552579863406,0.02582242561547539,-0.033265610204411974,,0.04677479875593763,0.008092613141061918,
SPINT1,-0.04364456426807691,-0.0941203782825696,-0.012089689365869367,0.025293719422021452,0.03327247703150914,0.023491455957542477,-0.026675788499001995,0.0018612673760818258,0.06222354034378018,-0.020798427184990666,-0.01242936169908221,-0.037709782967703685,0.06949398134907345,0.0027712408117081095,-0.04152068601530579,0.008482663658626478,-0.00232060233129017,0.04266438380084499,0.05567557095694741,0.001901694932206243,0.03607855390097631,0.04222672721710463,,-0.00019042399663023426,-0.025053986267266282,
CTHRC1,0.0017506091913048992,-0.0005049139640234247,0.08592016224701107,-0.001365470723157649,-0.025560302610028042,0.007727088976906026,0.05531833381158806,0.07288881452132037,0.11125658002329109,0.004462336404497554,-0.010919008738534238,0.008703448731464917,-0.06110850563522519,0.05246222373714518,-0.07114057259994397,0.10416195010073868,-0.012719605173052302,-0.01666407933835877,0.09861572117884816,0.016204108107506467,-0.030045928169127586,0.0322372657014393,,-0.006945467633575171,0.05816510811644538,-0.08275048944239309
PODXL,0.0492823007813349,0.2045422431017154,0.20061613247076984,0.038151385305050495,0.15572213124830897,0.11286372325792718,0.08576634821455607,0.07058943064724686,0.24674069173231009,0.07569034145386272,0.05635346745989874,-0.03179435364275302,0.22344865766614655,0.021307860447467065,0.023741759492427433,0.19896309443910726,0.0070451181239325365,-0.02776622724913142,0.005830673105060134,0.028474249415931484,-0.018398325083085827,0.013147483509596233,-0.009797842461046221,0.04741097123696923,0.13779660951513906,-0.07795431798737822
JAM3,0.07409401816691506,0.07308055589268596,0.12646240380911808,-0.02129907723374351,0.008615227613884124,0.10005272744474071,0.07846294800106007,0.05778866558843307,0.25343815940805187,0.05993948834517056,-0.02080036263553861,0.15274439810592771,0.12650642716054458,0.1585463164363346,0.02361882707149959,0.1294647453926515,-0.04623841362529154,0.1170150601533033,-0.015312285061715817,0.044029815421231674,0.07694733448282425,-0.07619882786635061,-0.07627384284268864,0.021233074219610546,0.05806792054920124,0.026861892444966843
TGFB2,0.04781977242418337,0.13229085509322205,0.08811166896562174,-0.01221723783828651,0.08641660110860186,0.02960051491557789,0.07612272840059486,0.05511620501507722,0.22578178674610466,0.001975575749358521,0.015274334554533715,0.06034150198873775,0.10210775658846663,0.05400888174425113,0.08923875947660247,0.1828742246182784,-0.033466044840582604,-0.16798967554970723,0.13541594805713625,0.02420061610682254,-0.013493612784091221,0.06106324409276619,-0.006973434964913104,0.08449772356198651,0.0602676281683664,-0.06483875694594166
COL18A1,-0.011068507740203456,0.15596750199177548,0.15819750459001264,0.046065657421008176,0.23822018251135224,0.015250557934677124,0.10736328849047806,0.06587730629933676,0.1948822129306828,0.05601465518661171,0.014539697737731455,-0.024463112833597964,0.21923405446450367,0.015386247741454986,0.11246654733316597,0.22954133989262274,-0.04494922823963599,0.013031783204117976,0.03381659420685365,-0.0007841798891346015,-0.0770498809445903,-0.04802311006552782,-0.08632618490037754,0.04873801247946833,0.09929547706803313,0.03609370201206079
NODAL,-0.005887624289960242,,0.03653721851469867,-0.01566603204024356,,0.009200663218869455,-0.02141113196563011,0.089090650104007,0.08428833763730594,,,,,-0.0006865080437272898,0.025539652068709992,0.10794401298193124,-0.043882139233443966,-0.12351637428669401,0.05450893230738821,0.029270074159864174,-0.03027763896784543,0.03712733688008092,,-0.03842974873266241,0.032074601435511926,
INHBB,0.0218542747618456,-0.014110092736473415,-0.007264375842942685,0.006445873698061418,0.08677465839274405,0.0011926741810809334,-0.006738651749868238,-0.01748399866688333,0.140588121076079,-0.009065284442498293,0.04338822243987106,0.07233283950562676,0.21603189420654495,0.08577186769091474,-0.000980404551945842,-0.03411186702882544,-0.05363007956633413,-0.04870163017964464,-0.02684874609854065,0.06696762253817552,-0.023262521752750644,-0.03620088027978161,0.011636642627193546,-0.017840782553300925,0.08347314099309006,0.05594680818098148
LCN1,,,0.03599500701360952,,,,,,0.0026761339099473417,,,,,,-0.05092543335270159,,,,0.008694207550396953,0.046219423984323084,,,,0.03550906762099407,-0.04058444766011351,
ARF4,-0.02906478753025821,-0.03088811440185112,0.009767861393808983,-0.0012494344496927169,-0.12645789241128488,-0.05700682390955947,-0.1302010569454301,0.005544361930285273,0.10131814953368315,-0.03791822843918676,-0.006270090882670803,0.021248718327948845,0.19099553102795686,0.07015324394411289,-0.055231808400873064,-0.016210154223080357,-0.1126280350646475,-0.07265548376678108,0.024588583601407747,0.0700187998985861,-0.0032474808303064,-0.015669888658026602,0.05283528637135857,-0.06084566934876872,0.012770234041779177,0.007813061239673735
CXCL14,0.05582034128559222,-0.036961140080494226,-0.010337950730115375,-0.0011580872485871987,0.01902069775893988,-0.020932263905812085,0.06024445472856019,0.029719187500778167,-0.046662223050880094,0.10240988451095702,-0.006213493838927107,-0.06706745075274632,-0.04868431680811103,-0.1509661371771207,0.014553159506806973,0.03937077603737173,-0.0026965106775571064,-0.09654283625508017,-0.09766051689321713,-0.009316895229788635,-0.06611475226285517,-0.04419359125708853,0.018282579669119576,0.014198432513316293,0.02029743560220617,-0.11675968154905957
LIF,-0.04314678431986017,0.04231522677677108,0.017883112627977992,-0.049057992141777834,-0.05826054538945734,-0.0793871785390759,-0.057422403571251904,-0.03299693476692507,0.151077500988306,0.0238444049541383,-0.05266251782123694,-0.07582111441123052,0.15898445021398058,0.016391036964664804,-0.015894901558002373,-0.04789017303221096,-0.054273836905942285,-0.03754995733444694,-0.030778073453135803,0.0013742425139679985,-0.005889120550887353,-0.07006310716117724,0.07166259284652804,-0.09261767589415103,-0.05242754031982354,
IL17B,,0.02146461974077669,,,0.014466315431913323,,,,0.033158266039514384,,,,0.06054144759122964,,0.004443064918875212,-0.061165262215922486,0.027207430248766405,,0.02560672051663755,-0.016261509714708605,,0.05702975552814624,,0.0709167956412313,-0.004871440419987487,
MMP1,,,-0.020679642412725734,,-0.02548503573071123,,0.035534445110278735,,,,,,-0.16877164494255997,,-0.11900379103824879,0.043299642580690446,,,0.0076668384689893175,-0.0435157266536195,,-0.00809270046267357,,0.07174890476039888,-0.09292916284387284,
MATN1,,-0.009633284987106088,0.046680516820476844,,-0.006270872285861684,,,0.013628365632582134,0.016051716145698523,0.03268026875138948,,,0.04019627522165574,-0.010505598843985013,,,-0.026303594774394094,,0.021089916939143288,-0.0564233039691958,-0.033409429735525756,0.021272190882839527,,-0.09212012684911348,0.04997093843224565,
ADAM28,-0.023835941981369936,0.03869159474615192,-0.002432010573685665,0.02485098922971803,0.00834698975388988,0.03071910134699131,-0.06150947249732962,0.001571033570452455,0.13808368327663753,-0.0501164823868208,-0.005714171883140004,0.065634518988847,0.08928596574314712,0.047442734224924156,0.01941218139069917,0.0313507242328103,-0.014198480459394213,-0.09511995347652658,0.059783005129184885,0.0006288417034182818,0.05453599764261881,-0.016336291848798576,0.01134581554797618,0.0027499024224848395,-0.012007352535521777,-0.044455624506849076
TCN2,-0.010560878578712803,0.05783468729736658,0.13069632212470286,0.05971510283001227,0.011873815120071879,-0.002592620762157326,0.11382233946184075,0.10165774011772531,0.11888995546963077,0.011498986697557353,-0.013801420130463751,0.07526874228455607,0.06958679665005015,-0.04751106006834355,-0.013344073204215504,-0.013307147218997258,0.03331847693201414,0.05587981384596849,-0.0036436355412862755,0.00971877805299598,-0.044107513917007325,0.011443675739020828,0.034047076031678454,0.08779517007881561,0.026764368193128753,-0.014590520795279211
THPO,,,0.004663037104388289,,,-0.00422617065689276,,0.014391574577831728,0.017601950260260932,-0.02733698495779748,-0.020802780145367798,-0.02245744419452886,,-0.019529889898785173,,0.038682782984892805,-0.03235681907237586,0.019799779335565842,,,,-0.028035911654687017,,0.06443741839901608,-0.01019709433242499,
CUBN,0.05550312091565272,-0.0508672810840566,0.030327780300122054,-0.011103159049392465,0.03946347505085528,-0.002886506850010089,0.02796775221225166,0.04832728940235897,0.03881171201335567,-0.054444742252292365,-0.007128005514199813,0.09126585121986784,0.16180868275649563,0.017519993401861635,-0.02277523898937119,0.010849821372094485,-0.015200614930785436,-0.02494130186266586,0.09085713037665118,0.0381957967394072,-0.07184119861997547,-0.004461062957386274,-0.0329746129257407,0.014393865598439682,-0.018286755107670024,
TIMP3,-0.01067374342639044,0.0735120705833155,-0.003732568968899336,0.06552697014659348,0.03970604846427563,0.02865914880176022,0.07664491592602486,0.03928104971422348,0.16772485620234456,0.01748802199777475,-0.005221955016342041,-0.047709134656729026,-0.0708629806656502,-0.03155024255944936,0.14042408656625344,0.12011966198319561,-0.11487746467265052,-0.038136636491910514,0.052166766257219464,0.047206945354053495,0.05926809254430646,0.026131663331966704,0.059323086124744684,0.01930594402876411,0.06448431676104403,-0.046149077178029414
PIGF,0.06374097343678135,0.10162625067251209,0.06759911060726917,-0.02525779030210305,0.0398120107002956,0.04575489018555144,0.02543271339299672,0.012904016899845125,0.17957505977777585,0.009601749793820039,0.03120662973210057,0.05860292780465392,0.12127670650667378,0.03555773478606094,-0.024108414579461297,0.16176459278235283,-0.036205438879651906,-0.014252643120130503,0.0741080415608763,0.013870257939623565,-0.057290581094516214,-0.004451664717471104,0.021571748515528046,0.0897963583022331,0.041565629110045646,0.016127963842039073
CRH,,,0.0323420032412968,-0.03253483390150271,,0.025039529938079168,-0.0065140685064916945,-0.017775885485913277,-0.05097937365809296,0.04470705007705846,-0.01226374266164646,-0.004849853611589651,,0.01733475066646595,,,,,0.05214822027423206,0.012613168157750517,-0.0034343950194551573,0.03286501586323517,0.04482262688765799,-0.02903514678304835,0.053472136327975414,0.019522930438686453
BDNF,,0.098734524576732,-0.018930483709156197,-0.008162644284961102,0.012285173726336336,0.02444360326081765,-0.01668179178439687,-0.008623967065160266,-0.23167219453537766,0.020476551796675745,-0.011020785598877474,0.008351746146761763,-0.02836516564499874,-0.05037494090156601,-0.06480728506577024,0.07133065399827251,,,-0.021719051664978284,-0.013786876729138116,-0.2054313197217698,-0.05086617916026409,-0.11844735339860259,-0.09828508213995982,-0.013537178277520398,-0.06763237486761897
CCL5,0.026742598013766387,0.02474055688617365,0.09563442830934935,-0.09985921313952614,,-0.033560741552402594,-0.08610868933688771,-0.009892549510940492,0.004476275583111831,-0.021118412631181256,0.014550299341078815,-0.001384209721163795,0.1057259318207563,-0.03831703424249744,0.030820597909248935,-0.07504328119188393,0.011613607199236826,0.07813602149415726,-0.00833736901007951,0.03608715450018627,-0.05950394798436757,0.023042165625065406,0.0716499262833296,0.027748013705837148,-0.01766407168006563,
GAD1,0.03313570803314691,0.05232656789535152,0.11561236545873665,0.04002010810499383,0.0673752917403408,0.06952254121634886,0.1175422360233079,-0.06815132267908984,-0.2079662675697829,-0.03677807536139535,-0.06855039974670347,-0.024548639982104364,-0.02194116432493526,-0.16080247379607415,0.002200802478283786,-0.0754345065686563,-0.00837642729663327,-0.006651268522814469,-0.017321403885016004,-0.006439651479894032,0.00011428874258292583,-0.0759802212392609,0.06800728696590981,0.05870452459237254,0.03293035156925328,-0.1925406054131695
COL14A1,-0.016083330857007846,0.009957501385948758,0.018686867906381677,-0.0033847608900031633,0.13859331424311072,0.010675945118629645,0.014094829491206358,0.02142428228464251,0.06405200713365933,-0.028944294899604185,-0.009679706680626917,0.038152506511449136,0.019377723168488268,0.1038562935490721,0.06644508942013905,0.07173411547407653,0.001496256489548152,0.08908419632684395,-0.02342455206483508,0.09932052687556737,-0.039173292838888485,-0.04307012650566428,,-0.021316255343689056,-0.040787630313412766,
HLA-A,-0.10791276330639506,0.25894317628389435,-0.05541150609761787,-0.0429036513112846,0.018542384929681688,-0.12882980822214637,-0.05657102432246953,0.10184989624196338,0.28519951245259123,-0.03756024496297178,0.022270921367191634,0.06136157735101265,-0.17197980319643727,0.11097213008394217,0.04340302027024209,0.039942159672193514,0.03184519891751783,-0.10585393378987074,-0.07520663533829813,-0.06459938158786029,-0.1618341385846083,-0.08567823091690538,0.1273567915264765,-0.05424238057053727,-0.00704920537038919,0.002139984816693502
CD5L,0.021425344345679075,,0.03577266958897799,0.004084108112228898,,,,,,,,0.0012743418777025996,,,,,,0.03947474613465247,,,,,,,,
FGF18,,,-0.07538526900167795,,0.0486853814009455,-0.05994750048251964,-0.04684405031754529,-0.021999305578490308,,-0.02762746387949368,,,-0.07508647157244024,,,,,,0.011690509339087888,0.02631909241902652,,0.05660758266465782,,-0.03962956353363603,-0.015457900232664423,
ADM,0.036203794859995225,-0.2507955709359152,-0.16205930894842077,0.006199904377296632,-0.14149250776704264,-0.0821522506665117,-0.16662358447901476,0.006995431119213106,0.1090242440919813,0.02536245812528476,0.04545072319996999,0.07235021106255202,-0.15423157408932486,0.08428644748032556,-0.018936977511699322,-0.22071611187509466,-0.006911997534807309,-0.1840701027292213,-0.07618324477409986,-0.01696739822467775,0.025064175970258586,-0.09362940562751665,0.0817711129800549,-0.12113931421636245,-0.0906921234868382,-0.07554100113227452
CCL15,,,0.025361391212999095,,,,,,,,0.03449411580073546,,,,0.03867968623031101,,,,,,,,,0.008298966957121616,,
GNAI2,0.008847409120577163,0.1770318291108781,0.10947822030670439,0.014011075630952679,0.011653161620081329,0.08006386895509475,0.04785128607926686,0.07490120185921156,0.283994675480426,0.07064162419577906,0.031429869885957105,-0.01016408836857983,-0.06317533839523747,0.12294930761313083,0.14728925589767086,-0.038173962574189424,0.006349835531318132,-0.06672450376850714,-0.049691989873377494,-0.01379189069197461,-0.06115832576590105,-0.0613688096537128,0.0631313313911617,0.03379860141490619,0.06843136942523621,0.077231757729638
HDC,,,,,,,,,0.0650952327901249,,0.017365751833296035,,,,,,-0.02927391125169405,,,,,,,0.0824250263041914,0.015243112777908274,
COL11A1,0.05850491427930069,,0.028173338476525284,0.06626576949743876,0.007798013158590759,-0.044090041103297714,0.03141338948243531,0.03835314137685646,-0.021293708701176653,0.038579388599425446,0.03565265676334902,-0.07749494351718914,-0.08295863856244742,0.0237601693181233,-0.06917955431572098,-0.025143594062111904,,-0.021362132694137084,-0.07216616399253092,0.08160073964170454,0.04306659239035972,-0.07919394960971404,,0.021037555626301947,0.03948616423311878,-0.02172631471928384
NUCB2,0.03414093699898115,-0.060337589186739045,-0.05008990442787351,0.028633317746450466,-0.05491529214938563,-0.04010479150880574,0.011981709620756453,-0.036713023016477137,0.08025479282140274,0.025155260637896134,0.05237160160071352,-0.053454775490520155,0.05081382916859248,0.019151402073916315,0.010913500087312782,0.001149821118914438,0.013720446557310114,-0.04201988151417382,-0.03557172387319388,0.0360125484207237,0.06562506556184747,-0.04466221912985133,0.02693380353949838,-0.00283831556928034,0.028932824344929546,-0.10785989069647961
FGF16,,,,,,,,,,,,,,,,,,,,,,,,,0.005216110500425271,
CXCL1,,0.01578476558528668,0.07554438034283478,-0.018441432912878482,-0.026571068150929862,-0.09370635311669206,-0.0005065240535590561,,0.02268852335713848,-0.005464944685776991,0.061083917268382026,-0.04891580642369866,0.22442101303661244,0.03947935034221984,-0.026336746136967813,0.023025190581335238,0.001625233828114084,,-0.07127807122248911,-0.03721226073608541,0.018311208306135116,-0.07646393466664299,0.02929718532225641,0.018281606993568296,-0.053709573027405026,0.07087224184847414
VCAN,0.028885491016037452,0.0772846975138298,0.03504016706248641,0.045052358196708914,0.17048177295049177,0.08205749333044575,0.0627106919783145,0.07442429217521063,0.2484114369660692,0.008513858462097379,-0.028521025960401094,0.05745352804548349,0.15547600120339788,0.26626220747257046,0.18937364990854416,0.0862536932069672,0.04088620113274817,0.1276016932706961,0.04086074399933444,0.13195604068937306,0.11065952098680885,-0.03848146192598392,0.08055914498006232,-0.0078065368760875,0.0245601853701049,0.05750391215674179
MMP7,,-0.05076130450783449,0.05355590157649488,,,-0.046834553748098404,,-0.0025057013052069807,-0.003923360130556432,0.0034589032592695092,0.04740173158555182,-0.048531111610312976,-0.0019463209078546203,-0.014114692303007452,-0.04884527662038714,-0.03660360245208081,,,-0.024950167474697905,-0.037776727264281,,-0.16503093714813602,,0.025121343126728677,-0.05230801202712801,
PTPN6,0.049589809147095563,0.07531128563550073,0.03289401745574082,0.01189862260543475,0.0874323490571297,0.02837256043811838,0.02582177616487947,0.025749336083647673,0.15464838322146127,0.03953575600169229,0.03808624381754163,0.07525195648399877,0.17625925762083106,0.07546820372203518,0.04638011562989754,0.03590383365885125,0.09350868272678568,-0.05050143397594622,0.018941424730047177,0.02805305823797192,-0.0030010537121693257,-0.010373803103968222,-0.09142485845267195,0.06900999102356821,0.09089166040607506,-0.01951982544344246
PTGS2,-0.04835608709415227,-0.031317567842642724,-0.03170895414364353,0.01018717099630089,-0.08287035538994715,-0.09675461071259993,-0.10405020341505047,0.002102655781366799,-0.2021047858116119,-0.04267774624598477,0.01852867059621223,-0.014903506896453325,0.04350786808758625,0.002515122505615131,-0.10071721369572671,-0.06272009542059855,-0.0001463903369203917,-0.00944966518641637,-0.047852237049645606,-0.031903849332894536,-0.00555229934667802,-0.09861417121541415,-0.1057494436424868,-0.08672209425954994,-0.04245605598193553,-0.06333212231883767
XCL1,0.014284584706759583,,-0.048657358278583196,,,0.003746374197926422,-0.047949175420302,,,-0.028779303493579947,,0.026150003436047394,0.014708837989782314,,,,,,,,,,,,0.07622375221958401,
CD58,0.09897511733948874,0.0723747943385207,0.08213845694442123,-0.0424992922972139,0.10595080530441145,0.060086247185037175,0.0058874801450804586,0.012750489978530802,0.21794944379868395,0.09553480339163822,-0.002249175692625768,0.022680911692299622,0.17957870172784066,0.11864683882555804,-0.0671873413560423,0.05562172074917569,-0.014321910000738004,-0.006243136267177065,0.05578133426953652,0.04324373314709869,0.07479825525517032,-0.02931530691006493,0.0009880719010382985,0.01729887493572641,0.05409353578242052,0.12435564674923964
TNFSF14,0.05558291711228644,0.10515799844284969,0.06305339379611756,-0.021296834025958583,0.05972267646582538,0.07639267301362412,0.02073404373040884,,0.06598325531481442,-0.05386711118168616,-0.018402926101461357,0.031920258355824536,,,0.13842110316354542,0.0791423598985289,,-0.017427025233279925,-0.050571530842577976,-0.0051268570501661875,-0.06868624695285228,0.07458585135313162,-0.05767001129145398,-0.016304399836594374,0.07522671510308081,-0.046688102410814336
CNTN4,,0.0083075558825063,0.027698041765493432,-0.04530114339316476,0.04156936016675592,0.0063727852908365785,0.09452441482245803,-0.00835983665691459,-0.16151333134244,0.03318086875466085,-0.005911823629682715,-0.09519600099844,,-0.0710586576681816,0.010049789795700257,,,0.013892223103780386,0.08906136365302109,0.02045348273712765,0.000526455409307512,0.0007289509560833307,-0.06941682417100302,-0.0308801936542929,0.08179381821891556,-0.1178012092434706
NTF4,,,,,,0.04261713454466358,,,,,,,,,,,,,,,,,,,,
INSL3,,,0.03868111907833508,,,0.012647743314487536,,,,0.0033257189101026075,,,,,,,,,-0.009478470721875477,-0.014911136989528277,,0.018887139572892266,,0.021343266716234648,,
BTLA,,,,,,0.0015343812999686895,-0.0173970747998381,,,,0.007667850380480798,,,,,,,-0.024280537213446283,,,,,,-0.005364017916254319,,
MFNG,-0.026360735180799927,-0.001185233624261636,0.1366882191548392,0.013864979439365691,0.03240568978578074,0.08009098276975002,0.09540367126989281,0.08708036332861845,0.10627599478421838,-0.04295777041931054,-0.018576404500434882,0.06903160900428025,0.1464878409930563,0.04719495060913855,0.11651665389373224,0.05860204702617938,-0.009570122030069184,-0.01261885070759801,0.05885530319589853,0.011820985632063989,-0.05176423708899131,0.006340750503887347,0.08322912121504925,-0.010310139093527577,-0.03773870084403175,-0.07871190220887002
ICAM1,-0.04936981195312631,-0.0019010387588695493,-0.11238877710721473,0.01124782117512347,-0.021056022554758084,-0.03587079015114219,-0.06332988788541957,0.06694483699014897,0.13850671423751681,-0.08549428317966117,0.009188137236271867,0.03851182811862226,-0.013997496473325785,0.025359750011244693,-0.01415212338311894,-0.03452993346229871,-0.006251818158594633,-0.050733607182245496,0.029806865189447907,-0.002095367969409383,-0.03390987633738007,-0.035292724743053346,0.01710764807051706,-0.025313669590161122,-0.011391424030955742,0.059431716607603706
PROS1,0.01768266771330867,0.020299680855582657,-0.003815014072198377,0.049919136497815764,0.018115660170817324,-0.006114110365631094,-0.023872292667657835,0.04750855647331707,0.2266935941124271,0.036378171355497015,0.02271595830641997,0.011885899263876742,0.12238838969454499,-0.07342690430948072,-0.04473456961228189,0.024147399241649516,-0.007344084204786241,0.02526788798453346,-0.09779009901613837,-0.01719392852056762,-0.11380798994404781,-0.06446464079002973,-0.07944158118154941,0.02998232762959468,0.07961684562845825,-0.014343118005126339
CLCF1,-0.056463843183458255,-0.013156349875203312,0.02033319817256731,-0.011492093135651847,0.05127713698964909,-0.018517966280000398,-0.05696483589559196,-0.01937554111525963,0.021434181759832922,0.05735583331552621,0.04712138914307598,0.014178934884924466,0.06497797202998763,0.022807273209683333,-0.006444041878664643,0.0241965761025507,0.09744649126046502,-0.10595323727009576,-0.013734672624680552,0.037075180923075414,-0.08150119086047983,-0.007273858225216652,0.09056426068976708,-0.03320977820697383,0.01865673509300575,
PSAP,0.03962176540559328,0.10023519647446909,0.07939007146141211,-0.018270759418013358,0.07865152396691011,-0.10561619998978657,-0.06697664686810728,-0.06373499014959601,-0.09780860652831508,-0.049302801547420165,0.041643975399257696,0.07863232175053506,-0.05613436262481084,-0.15060337724410186,0.03707908912072828,0.056696440229966845,0.037695157501766614,-0.0474350148337487,-0.05729144753708268,-0.03635811557835947,-0.016514953333287317,-0.08789168245026638,0.029037601954547177,-0.029438582744345413,0.04226103385467651,0.12702650576116342
EFEMP1,0.033206634970845986,0.026059011169918964,0.03554787945308838,0.016853703525606247,0.0799343363731682,0.11160426020449463,-0.10075792434179202,0.06918969383996985,0.24517009032450038,-0.06938100391100052,-0.0010807758383109135,0.10648371332524449,0.08116065729387104,0.06995777844297088,0.09192148607247028,-0.003957221307933319,-0.014580356345731876,-0.1384842352127674,-0.05139060933853735,-0.029672437337457114,0.023458270604827143,-0.0585593715512396,0.03600294162603105,-0.005072771699367655,-0.014191965599972286,0.14133319577289677
C1QTNF1,-0.016093380979248353,-0.038077161815690645,-0.04877263994056527,0.0432991195085656,0.008282063373160696,-0.007847165566148276,0.006170779159439964,0.05613335306198856,0.18872115743760268,0.01400166641668075,0.0011577100490920082,-0.05145053503200989,-0.07044908189782972,0.08534483528840248,0.10610833986343936,-0.04941888772574515,0.02523739084834012,0.0490132448558357,-0.05324143598870963,-0.07728314004692123,-0.004052571997088867,-0.07555680392817068,0.036735250521603126,-0.03993177481428992,0.002621259890894368,-0.05848453857079047
ALB,-0.061152075884808144,0.045932381936778975,-0.020082083676926734,0.00029475444080149957,,-0.028589874850528392,-0.03904890875174788,0.0016511776907293626,-0.04666731627473005,0.04125083639818387,-0.0010819113453612314,0.02892098725291544,0.00026876897643094257,0.0383948160874252,-0.09923507146524732,-0.024538623152268377,0.005884246297571232,-0.020732320942193093,-0.0030619588099005317,0.011919138057251437,0.037250012100731776,0.009530391326191616,-0.012982901876840976,0.00047595538955715814,-0.014974061146283885,0.036750085370735694
CCL13,,,,,,,,,,,,,0.11644732389110567,,,,,,0.019060656877230388,,,-0.04239118940587207,,,,
EFNA3,0.050619085662984196,-0.09063623916897404,-0.027542240510118325,0.03350865562769477,-0.03998958873048971,-0.05424345279837608,-0.030952697631064344,-0.05199862182530995,-0.23748544176861064,-0.04423765283394329,-0.008534539752405841,-0.044714991897303075,0.014184258074766445,0.027279088001870413,-0.04296691520333873,-0.10077619726336098,0.018093650403826295,-0.10996904749596359,0.02267783000949393,0.03329494185588618,-0.014678167739673306,0.02382948287792518,0.07474407430362728,-0.002232687929638345,0.0704592109223887,-0.054678390951001556
DRAXIN,-0.10821223977987403,0.10119303699847552,0.008572645087996603,-0.04368244717464829,-0.09423313983530851,0.04834507734329726,-0.00830231083575848,0.09167943636742618,0.1730133074884879,0.10870479439108692,-0.015077749536690385,-0.03658517397691548,0.11765937938210677,0.09895076029755946,0.03419672534871396,-0.07145959627317927,0.022366394514504416,-0.07975190257699931,0.005695415047083692,0.01874583205014596,-0.041647368109601735,-0.06343801811901735,0.04792083889330471,0.06659945720022675,0.07361152952925605,-0.15065773365901236
RAET1L,,,-0.022539923977741336,,,,,,,,-0.024543504107798857,,,,,,,,,-0.017856691218850605,,0.01664265372032952,,,,
NPTX2,0.038754315463231576,0.15329872429573632,0.028354255379729233,-0.08345422646220282,0.06851911453675674,-0.001980254852107247,0.10014607435640857,-0.06281766484692981,-0.2685567576491565,-0.05662956295049819,0.017603137970017536,0.05135024529869915,0.114344623395685,0.11904137098768446,-0.10004632811285541,-0.0965265698167647,,-0.035788065298546744,0.0659150897543571,0.03169438689686536,-0.058515423715966866,-0.04613671746409205,-0.024541943020683347,-0.06758275531326072,0.006199202798713524,-0.07608445310038749
FGF11,-0.07359166141378579,0.01986994962914475,-0.022614456412166126,0.010739375986158078,-0.07902215150139258,-0.06807553763000858,-0.04289566910021379,0.019667092945655454,0.14156608396868417,0.02219773189686394,0.03989340741948405,0.018448919992897172,-0.07331934452265866,0.10627848518727187,-0.10030607336743964,-0.11376283452389527,0.0208516770846052,-0.01761081141618226,-0.08857480370031434,0.021221400094302106,-0.007272143420144753,-0.0900373354575015,0.1104650843519329,-0.040986171136129505,-0.011421467376771882,0.021100212206362937
CD59,0.024419373273785298,0.20152835612271133,0.17426330232369006,-0.041636172680497845,0.12022970024884316,0.021879115733997867,-0.009563928013090372,-0.01740616870869187,-0.17781451555276162,-0.06722283401717505,0.024191443556509516,0.07619421512284238,0.06095075849485205,-0.08222230526311652,0.03831557313419561,0.17742576758660308,0.03297977502289842,0.08045662114958316,-0.007345584212595745,-0.012313649300214852,0.04951246062537356,0.004711965364101264,-0.05177257115004254,0.08287064766923405,0.12636385428955255,0.02148443363589036
COL9A2,0.05197997513252716,0.18860983058005884,0.09748519943738701,0.019125175633506682,0.11172343455251066,0.1288747411697285,0.07202782446699661,0.06472641390717498,0.09576955371534378,0.004902456667545101,0.0636066192936378,0.11301584167165084,0.12532193282863555,0.15351355485041832,0.029472990540340683,0.0989083917431189,0.0025064782389953226,0.039712560116610014,0.08100043860859103,0.05156814665848945,-0.0029047880354298675,0.11077701725763797,0.028625404450609564,0.15852538104985078,0.08783693361546768,0.0794321258553816
DLL3,0.005508915099482868,0.08909181480549229,0.13830800307000327,0.04142631029114627,0.15763090610707828,0.15542985169732318,0.0729584761199854,0.03400223397014568,0.09485738976605695,0.03751970790064503,0.05827984375036058,-0.01445964040807639,0.05883517618149958,0.1864321435891018,-0.006011797192333116,0.04957319621314415,-0.02030199259294119,0.07365632608905738,0.09057285070668206,0.12542887100392033,-0.002036890311143317,0.08896756197958557,0.11087251392715776,0.09594815660057567,0.08781989932350148,0.008347052758551618
FGF5,,,,,,,,,-0.04196178237205941,,,-0.03903877103583088,-0.012501488968804698,,,,,,,,,,,-0.00874765377292118,0.030677863849234436,
LIN7C,0.06161916229072829,0.07161952117624917,-0.03708963955686564,-0.050308375347059855,0.0829688756877255,0.02300968503561525,0.05993882786057554,0.036918295073318355,0.13243305329607344,0.00755351930585003,0.000779702802405681,0.038103326309819344,0.03976428576505483,0.002081032603135883,0.016499543634356413,-0.004442162925309926,0.0270280797418061,0.003148529804332946,0.04544688804758195,0.01311472832745855,0.037293762527724234,0.011542298384852876,0.07420218732445891,-0.03164378137513662,0.006104951283927026,-0.08788640071625795
GDF7,0.0509487199225768,0.11320636981208503,0.022759878627153722,0.0012463207178466827,,-0.005373803890831416,,0.0007455592489432932,0.04989246944271101,-0.01102473039785354,-0.05510729029779648,-0.034817206603792256,,,,,,-0.027592135121695806,,-0.03121063977497089,0.06492234322181067,-0.021418134326888463,,0.015297976126798578,0.03247939272797245,
PSPN,-0.03234794862678084,0.017182058917954695,0.042649993180503894,-0.03151792664560871,-0.010598381786204083,-0.06407173386987118,0.01296040642840164,-0.0511014356721877,0.019411494521696493,-0.021074999938371027,0.00823607284803698,0.004349090018942095,0.06259659909060075,-0.027166549455348143,0.018044893909766397,0.08791639081215444,0.0195341215583568,-0.020333487393829876,0.05479585010577475,-0.032779529847258175,-0.05209150895105237,-0.0125416004083424,-0.0011934143993141764,0.018847053231181066,0.04575471503745743,-0.09246385930943492
ANGPT1,-0.038090214933952884,0.03756977736199089,0.0676666172478138,-0.0986367827025229,0.0627789896475716,0.05986544608653279,0.09380083362102155,0.01133466407548989,0.16627619109160469,-0.005803057493417557,0.04888090835021432,0.07225177935047696,0.10876364781077286,0.029160106464906167,-0.061453247473951186,-0.014616166599571066,-0.04766932926195975,0.01293454882460948,0.003507725252520332,0.018339427346929605,0.016952465373790165,-0.006573655926172423,0.04480519823579122,0.028761994334540335,0.06297545136471525,0.06277592334340673
PNOC,-0.04360519679183145,0.03724860839971586,0.02484486239445144,0.008490261915165753,0.08717528190538758,0.0643149545168785,0.10609653946845211,0.010445318565073445,-0.23625203162064035,0.01188838957447146,-0.0002268318686528592,-0.009767565837541436,0.005771414589016157,-0.08875380713531694,,,,,,0.022320766373906953,,-0.04138891786946724,0.019199642534705384,-0.006753468984830353,0.04320760566223648,-0.17383848322001202
L1CAM,0.07694819613543423,0.0032478100664694964,-0.015843496200333144,-0.005002228135782291,0.08365148164968228,0.0045048760767284835,0.004497092553319371,-0.06811859364828297,-0.15333704968609552,-0.03951590255040741,0.005878777617356326,-0.05861499108305805,0.027042693676749212,-0.21072343936723423,0.057656529113974196,-0.02040723180888554,0.11120996890801665,-0.020534986576552738,-0.007739683770496097,0.003030339387659947,0.034358119237802326,-0.08186479843261223,-0.061803812395981886,-0.01402677834593901,0.046581810437129126,-0.021122890155654956
APOA1,-0.033208135760086674,0.0660204620812999,0.04906981137940756,0.027456121938765458,0.07318888630072337,-0.01906865463381645,0.01887227017707338,0.03986369945997161,0.03523792127398677,0.029604650075009085,-0.0027177650320108545,-0.02725987554972475,0.03567270202748144,0.03133036822758885,-0.054547914170276136,-0.03202611171679381,0.025332370975758585,0.036923163213543775,-0.014253292185038216,0.037547422425666555,-0.07268348170443958,-0.03770423775971684,,-0.018428416672645585,0.04810414303231982,-0.026563270679918375
PSEN1,0.051506090784637026,0.03223704083525051,0.09073429640268688,-0.0410076311252621,0.08982571129447736,0.023012993593880933,0.0403579177377414,-0.009056175589944999,0.12181875726742891,0.021197703584143343,0.045599816670024,0.14709579421237218,0.057940070990844854,0.12366192844838755,0.03949973893775744,0.1176485163250286,0.028811374229423297,0.03445923443910258,-0.004560962325409336,0.07033939845587761,0.12290387553697885,-0.01334707317531476,0.033916998450784,-3.3397945182531044e-05,0.048263346312071354,0.1119476959221082
CALM2,0.04025284376389192,0.18914131100478326,0.12408211319640713,-0.02689970873727318,0.09177856054851823,0.06840721430196182,0.12715783521409918,-0.06587397353408522,-0.2631228616646313,-0.015042554111829448,-0.015538713558654634,-0.031815759270025855,0.14322973279531903,-0.10300172137865472,0.06580670903372458,0.16041472060238327,0.05114876820728882,0.13103644460594055,0.05661917766639297,-0.0004561023101470063,-0.005482902188754758,-0.00282280287209832,-0.049786597196074464,0.029093194971224035,0.05946999256999619,-0.00873794391088192
CLEC2B,-0.052223809662625666,-0.21478430857502476,-0.058317012414891185,-0.009196010809334108,-0.08629837641902255,-0.012375599810873942,-0.07076496437572666,-0.014221024022013487,0.14709257159530328,-0.05887376093048344,0.007148404629891734,-0.012964334342556212,0.01641767939546095,-0.0470828651433277,0.006055985753705272,-0.22526115793807422,-0.050681011900741396,-0.01821654361211849,0.03298866853950142,0.028595376774265092,0.015163367195210933,-0.07286560127136983,0.13674221438224016,-0.03857207125816268,-0.08981033914338009,-0.08605067138184452
NTNG1,0.008389405178298772,0.027028722938505584,0.022708171940575478,0.030420008334666453,,0.001499837021353288,0.14030867812657222,-0.001427627175308069,0.023967306981111512,-0.005633547078267049,0.03745337064986805,-0.03230845861581425,0.02827018110902862,-0.10699763195864877,0.008540733737008033,-0.07390824367187486,0.054307974390061194,0.005587164499898252,0.02813922123589858,0.07534978758059283,-0.022086089216672808,-0.0035877497545716472,-0.027291998409064953,0.07834402186037305,0.09528089336817848,-0.03349833228152106
LRIG1,0.025195689770515717,0.2656006105974669,0.12054045997234474,0.045328453293632956,0.11263282186026631,0.07962808167884447,0.11693658635863925,0.011631636059133815,0.12852902612971204,0.11525725058713984,-0.04407159057343337,0.136498188423682,-0.08950011357825034,0.17163989000732646,0.10447355374207924,0.12244496559244639,-0.11680444131137882,-0.04560261919789656,0.10140650259920071,0.07147155469156757,0.020439672939056484,0.1073321944479913,0.08426739064677764,0.028110996924127146,0.11092287208588202,-0.03159192072576885
CPAMD8,0.02438574693086957,,0.038311507667188306,,,-0.02012296507289165,-0.00846890672748217,0.012780678325120578,0.04191801517031286,-0.010098934820682234,0.053924568601589826,0.006887436748493376,,-0.009174826967288666,-0.030343654613787716,,-0.04139993205838942,-0.04805801766860755,,0.016832551453385337,0.004986276736769662,,-0.002556788118739571,0.006450082444031757,0.07635727939505375,0.0069463845133602145
GHRL,-0.021824399301691826,,-0.0001328082733716398,0.0038237450949748725,,0.07297899491238731,-0.02284344777041604,0.018277134108005785,-0.0788340337726864,0.03598129853703544,-0.02886597422515119,-0.04217227732922611,,0.025948096406771797,0.04975421974215743,-0.04921367142637418,-0.002275276897427666,-0.03948573006072451,,,-0.03342490015136027,0.07807368147571295,,0.050912018768033016,-0.06246423980844085,
NPY,0.0027085298314395894,0.059786896107609025,0.07511015277000747,0.04132234217896628,0.004086756206729421,0.027735090598430448,0.0462364454176894,-0.0634949058966692,-0.16002377567460066,-0.03177913650402281,0.09162896898683927,0.09500068111630798,,-0.09075731693381153,0.0014732852222832048,0.03723722972170183,,0.09221298356314718,-0.08673483830910582,-0.014350211266131329,0.14230088693140827,0.05038825590494195,-0.03756931318922418,0.05941381849405378,0.05712381128352875,-0.02417389309195781
MMP2,0.07802814069054023,0.289834486736765,0.2381432170092874,0.045005164384666,0.23361327506534027,-0.010334035116702384,0.059957289603715956,0.017096978190587326,0.22506703880604786,-0.021625229805804724,0.048942528915024625,0.02672683038764162,-0.16343063285862983,0.2454359323777722,-0.10540291937072482,0.2357326207579571,0.015057881524339506,-0.012797633039117809,0.016881143197691597,0.011586764767419613,-0.12402288437085524,-0.01566179386469534,0.03496512913066203,0.07925568648756197,0.11474557876712532,-0.012459822889386098
LHB,,,,,,0.013520586493910584,,,,,,,,,,,,,,,,,,,,
PPY,,,0.05501430448918117,,,0.04441342101160539,,,,0.010578510375502866,,,0.005079197216036033,,,,,,-0.06588275047447623,-0.011152848545776722,,-0.0819959652679416,,-0.021590211015801872,0.0717445046853146,
ALKAL2,0.0734639029085048,0.05612947586172955,0.018960604696233174,0.018632966439683128,,-0.006746931272642231,,-0.04064711252606926,-0.006485709546949914,0.033113029675539224,0.05174516922756241,0.09207205863060948,-0.03860737754837253,0.05668200450877071,-0.030752381948843062,0.09634329052015049,,-0.06751546082420135,0.0372728565657449,0.00443369703626612,-0.03698789931514579,0.0714952210600514,,-0.007098737691639869,0.06651212226960651,0.09894056280996907
CSF1,-0.002937199597057688,0.030034653643222144,0.02326848193937933,-0.06750657844192993,0.17986680591348544,0.025080903961627186,-0.05382060289815366,0.08837175667398059,0.13990108405485743,0.018337593220255636,0.008456835137418873,0.0681478358186372,0.18753654445682816,0.047015492114125756,-0.046250955323934126,0.07067354128467691,0.0024819504077487047,-0.04281403938735963,-0.05374544907305513,-0.026705907692854317,-0.03613429427997217,-0.07576179110397245,0.112989063282217,-0.01988506709291792,0.014896342558392277,0.007095358400061111
SEMA4C,0.05428339348505512,0.1239868672458468,0.03373562984306666,-0.03335139894713617,0.11243325329658543,0.06125060946440735,0.020246584255233888,-0.004683451777533949,0.05632630714392183,0.03316959440844582,0.02776976221815308,0.04255646341825851,0.10803290274187197,0.10250147618921258,-0.06619934236963654,0.10530448245326814,0.06744914717026777,-0.012978137417813588,-0.005686914667327457,0.006739625100927301,0.0021142705919498924,-0.022603980780889796,0.03320127329743306,0.0889886266806877,0.1363650214991583,-0.06764100085703255
BMP8A,,,,,,,,,,,,,,,,,,,,,,,,0.05702594006146322,,
ICAM2,0.04151608658329432,0.1456533672371453,0.1329595452620753,0.03945092928321798,0.04613264022300468,0.02793529828670113,0.0406455035625017,0.06145206980048163,0.048362089786682556,0.050145717808970654,0.015459404408347545,0.006574947327805237,0.1834503483692182,0.005020662938851168,0.007568320341732012,0.17002229536334004,0.030729902265984477,0.003526279685188996,0.14324301355943617,0.012203879656925848,-0.007419720941241587,0.07763881639718825,-0.03767051572467908,0.08334108358404377,0.06923640551626814,0.009521914476360412
SYTL3,-0.008415284284249622,-0.06470212755166789,-0.10816914706250501,-0.02267288051581224,-0.07343085034429576,-0.04335281879655248,0.001848822062733554,-0.04239888857351018,0.11693238857389408,0.02085199016752158,0.011104023941402684,0.012176031361300946,-0.047365860201414575,0.004368315312009337,-0.02892203281760183,-0.1850195748587319,-0.08107327070803486,-0.07243007111198041,0.01888348242376222,-0.038830756277145044,0.0019927663756757947,0.00639448424529694,-0.06040054565677337,0.025147230108263717,0.0903309359501821,
IL1A,0.04629023182155756,0.08783799074810215,-0.07304916069024951,0.05505590817732802,-0.05381568100790494,-0.008564097021732824,0.06032562614447009,-0.03835982496991342,0.06071201520086874,-0.04654247347599643,0.07073669644879989,0.01854495428171887,,0.023614403201338906,-0.01147694689743123,-0.08832431740530951,0.04266742709475771,0.006563159830438752,-0.027397549863200907,-0.04277770477276848,0.0476904468306736,-0.012976801811891444,-0.16289906613509372,0.06207524751765356,-0.03003304196121328,-0.03462438758116537
HLA-G,,-0.003536702028792216,-0.0700696539409083,,,-0.06527462779488175,,-0.028521701117331957,,,,,,,,-0.008027836842819536,-0.058533582300856306,,-0.07348575544670317,-0.010296604393566555,,0.02684105843813413,,,,
PGF,-0.024303392329698983,0.043142312471370924,0.09978522736678525,-0.009051246048185704,-0.015674217868397428,0.032452866682643196,0.03837172844371391,0.04538095268664835,0.15048513061380986,-0.019473525341465243,0.06503876852879766,0.05139650688170006,0.18219101528357226,0.027125106777097507,0.043672712952873415,0.11559336540125068,0.07003435165811994,-0.03347289413978055,0.0476636181436511,0.023206341664828208,-0.02914606187188692,0.039687932703361906,0.08123705350282492,0.01059605295513106,0.08378208925948238,-0.03407158163658956
LGALS8,-0.03805369002785854,0.006780838604261898,0.04023844962905168,-0.00042724401508485575,0.0676833732235032,-0.010671233438540415,0.04931365185209497,-0.032416437480375086,0.07037689879685138,-0.002545758755591967,0.015332925205937062,-0.09615517046902072,0.051544423704276386,0.03654700587572199,0.08740527553078628,0.045684220301373764,0.021421572022246226,-0.06700508086639666,-0.012941257929708749,0.04281918351769945,-0.02994520854144126,-0.02401719972452698,0.04014332483613179,0.002942755241928401,0.016115906658412366,-0.04048405039006467
DKK3,-0.023355896565648595,0.24459253104561382,0.13737175636340224,-0.05924275096538578,0.026220374323587616,-0.002784360638700506,0.11600601398812072,-0.08899368361002669,-0.2783024363909584,0.0191132871533999,0.003421215860168446,-0.035882310322407955,0.06843962641793272,-0.1467668197609992,0.05577424798330139,0.1597080181061073,0.006596131513423402,-0.02091190772465531,0.034490617326379064,0.03861020676890995,-0.030150619896303237,0.11244037592054855,-0.10102750086983749,0.10739811633837072,0.15914451142565933,-0.03655870307500772
COL16A1,0.017326238356266444,0.25506899888449813,0.18474097734636807,0.025804822223199592,0.1773152089768905,0.11267667201649789,0.08114739047620315,0.01694761002037888,0.12647295708837772,0.06820828520401745,0.030993613473569354,0.086436787443693,0.20946529221991958,0.28339931664812024,0.010657824169875195,0.11767738427103108,0.020115912856530613,0.07024212201558439,0.08403812479737985,0.08597420905903802,-0.0034782492739168667,0.014006755880115865,0.0836219930496129,0.009168952196611303,0.1405517112154253,0.031334231725089416
TPH1,0.008009067514505154,0.08487341070888517,-0.019378353090816966,,-0.022700587883408417,0.007531670247600935,0.016028111656287196,0.017021973275656577,0.017814048057189485,-0.009643086665319245,,,,-0.020968154679689828,,-0.03013745332427635,0.02929577470059157,,0.005801680538457819,0.078688218162773,-0.07336824842565791,-0.05282386681826675,,0.01719726279665492,0.06790772715419308,-0.06515327039719593
TNC,0.01483964988229817,0.026908626611617387,0.026586164452801733,-0.023056473466727585,0.026419743026810105,-0.06673741257544905,-0.09708077098256329,0.0814072655485429,0.27675773266184384,0.07471157646662528,0.03484430077578441,0.11503295504524505,-0.1988972139778376,0.13276924665321266,0.0517658992290228,-0.05091271388222747,0.052586268424018215,-0.19347561592139495,-0.046270760468021796,-0.04825188183660398,-0.10355137775922695,-0.15539330226438744,0.08939128133772929,-0.00021827388624025244,-0.020252572763077865,0.12914857455418452
TNFSF9,0.014100876359449429,0.04403672943245561,-0.05517371253722367,-0.017454331465061455,-0.02699683094363028,-0.015192348507284443,0.029590652564895056,-0.00858620816762369,-0.12064809352014062,-0.08323347574167864,0.008512818319636154,0.11355947176768896,0.03538645818730211,-0.08346483447514932,,,0.11675321079262413,-0.05438436168984419,0.008781105692805175,-0.03581999994167378,0.031165024926163073,-0.023157308740839096,-0.05994587297574968,-0.009049944682738478,0.06878329255813007,0.07195164961951654
C4A,,,,-0.02836825663320953,,0.05282925268759898,,,,0.005104812581055171,,0.01337782219050189,0.024811670162155894,0.02120810724544318,,0.025496446829119945,,,-0.03162567963630057,,-0.03822604176759791,-0.025229524302495324,0.0862494490507016,-0.041086001033210945,,
CNTN2,0.057422949124960466,0.07954043541774296,0.04555566596866759,0.013351190698341007,0.08939869126727075,0.019251636071157638,0.09551407947366654,0.0028738788207946482,0.0870200094235072,-0.016401782276190276,0.07537540192647521,0.14866477303521441,0.027803283518563107,0.16744196374999332,0.014911941429186094,0.024612365773218268,-0.046351990876017095,0.11497958814692301,0.11516131928428551,0.17554786495541402,0.049040456228800974,0.06960014873791437,-0.012130954801822578,0.008466412834939506,0.059512319882618424,0.08031235529512512
F7,,,0.04653438261802618,,,,,-0.0332608099640545,-0.034234253693041936,,,,0.026462779027537246,,,,,,0.02593673510961543,,,0.008964654136883658,,,0.02061508054518966,
LUM,-0.0025008281533438013,0.06807996614350696,0.1306172222427844,0.0337548799790584,0.09813685875176714,-0.048104907972448235,0.08742731387258962,0.024681438610982365,0.16482461921472596,0.040887904360830514,0.022023651790626018,-0.060061993194201614,-0.10285863229473226,0.05028234275307154,-0.009494736905045539,0.14963066278394152,0.016053950604512743,-0.016657752797299596,0.05662574319901106,-0.03039319933402306,-0.10276547478011189,0.008805927481454529,0.003430433187840176,0.010277332216661925,0.11338174466402512,
IZUMO1,0.02031254051252442,,,,,,,,,,,,,,,,,,,,,,,,,
BTC,,,0.02177007900077227,-0.027678627001623858,,0.014217859497558313,-0.007583508842971466,,,,0.003473869414081098,-0.014757131543272668,,,,,-0.04127758947583456,,0.008379537483658286,0.028669052188921015,-0.03433636735790449,0.019093623905516333,,0.046400587489425986,0.01104949940528834,
APOC1,0.020798858732898128,-0.11464381671376689,0.024954985628121568,-0.09536905792780788,0.07721030156512237,0.11131601022900338,-0.00995667011974875,0.02474102750603367,0.22430816981169405,0.025526971330705122,0.07147909162298542,0.15665053873912183,0.1247868368346234,0.006142626617707511,-0.03825466145597133,0.06666317819693456,-0.04926105401367885,-0.03734695376289874,0.07202593281371462,0.014205115927642908,-0.11291967995968802,0.021145101865970087,0.10938663971841898,0.07362409506564767,0.004990261483999753,0.09401862454793317
PKM,0.005871187094115098,-0.0773805336736759,-0.10730571940451057,0.01617850475047772,-0.10340902210137164,-0.11148972184766337,-0.13483201560872154,-0.01208012224836164,-0.0020864565170438374,0.050837794785462576,-0.05286432552289825,-0.11789335946257593,-0.09658708891738545,0.12460271834229414,0.03913083473779166,-0.1448927241607854,0.0141679207031281,-0.1764900978873806,-0.1155499783947295,-0.0700559810359639,-0.022764695427607787,-0.16733610126590256,-0.026432679345586938,-0.15813363373893738,-0.07294578410341575,-0.03399711540736781
TNF,,0.0937495811964866,0.007417343099141741,-0.0038086456355388154,,-0.03575389371646628,0.03885234620594327,0.049020669051474064,0.04213487764633027,-0.03592646142455681,-0.0056415443981790115,0.0881437441975953,0.09725748028362192,0.06944554150902175,0.005367055205514813,0.028735413652694608,-0.07295742979903701,0.024971985067987687,0.015114782905238319,-0.007464044451884915,,,,0.059803132771956105,0.005626964977639882,-0.02166082305218444
GNAS,0.0721677481446207,0.10784295075555458,-0.10187947010767237,-0.017651635079477233,-0.1857469675597165,0.13162097100725892,0.13274892724938483,-0.06424433929752109,-0.30161786676259816,0.08703952818959677,-0.03638076670797482,-0.13995797153903813,-0.18485212477367163,0.21573375953041105,0.009752972954843031,-0.11793201292511596,0.06749297054116314,0.023721200088404427,-0.11672631980803565,-0.04191623366823042,-0.048549796328019874,-0.01996043676577347,0.014803468243487345,0.008825691599822863,0.12120769893668164,-0.09349634283497885
BMP8B,0.04296900703633127,0.020151733299825038,0.0270919340789084,0.05886888070401993,0.00616002347657517,-0.04259677997708453,0.022645895605128637,0.016859071693369726,0.0473263016727213,-0.00035043006690153254,0.0033770184015057326,0.10490756605703953,0.03678171329627771,0.0723934610140082,-0.05019107305915971,-0.018728707570029896,-0.03368144230094747,0.021036618431296176,0.04937093478355424,0.013393360932030978,0.0777790769950286,-0.10535240734116709,0.011586922249699597,0.04103178896304462,-0.021600015330914598,-0.04220457212766619
LIPH,,0.028808323208095288,-0.008551117029947281,,0.010224676502516442,0.0046572156716531525,,,,0.006952967819400326,,,,,,0.04630313545182168,,,-0.03122186731032864,0.08328419022095555,,-0.026193934049977278,,0.03653248240699087,0.03897635658740164,
CCL28,,-0.02449049591585755,-0.052056189789695055,,,,,-0.020688579326001082,,0.02374871667157439,0.012597123284345882,0.033033245136447925,,0.03621465556473598,,-0.08825681434409181,,,,,0.05233901108784167,,,-0.04696718846918073,0.03990707547853327,
PTPN11,-0.021679237402304097,0.0346397508072477,0.06375255214710006,-0.03192424440937544,0.08750922876067664,0.05068356319635545,0.06139442512894027,0.022420377420223122,0.06888488606119458,0.0524904783459289,-0.02038357310589325,0.14127778421047016,0.10384823807331295,0.03156396367784503,0.18324945599667944,-0.006828804720762344,0.1277226387382362,0.04421116496729804,-0.01007770131856722,-0.05611408248326648,0.04701651144058268,0.04182292678019393,-0.003097239587516176,-0.057842086628617555,-0.03588946924694833,0.010180512777921886
ADAM12,-0.03616900867282089,0.1807268799914422,0.09132656482669292,0.037467666827957526,0.1908392526028484,-0.03651083660216369,0.005386830590950267,0.10638455828777792,0.152169073467375,0.10581953712724382,-0.044707692416921074,0.03421201019391937,0.1127175730816752,0.08880770403310781,0.007513618286909028,0.1588228506182122,0.08311304013977483,-0.09894358738003786,0.05638710866564804,-0.054545785505178045,-0.0670640654174531,-0.050800940012402554,0.018312462321468877,0.017730565894144096,0.09146045583930827,
EPO,,0.03120990208674798,-0.045009978828885924,,,0.006209365758571196,-0.00448929436104281,,,2.07618607848225e-05,,,-0.062241611438042965,0.034536086487099354,,,-0.008728753499838725,-0.029131522264663857,0.07195863072088239,0.02955082154442389,,-0.025309327613840048,,-0.0083597306133806,,
EDN3,-0.0495987305446475,0.025789269224413967,0.03479096056067557,0.06645567260658108,0.012264489712371589,0.03949751587356732,0.04146842644505987,-0.029574798997212225,-0.030268361806411657,-0.050044590602140705,0.020388085235395356,-0.07049185977743241,,-0.04383713266303267,,,,-0.012980543011255907,0.022282450568307268,0.002242281817121738,-0.013779604152906815,0.03844097718047731,,0.04096030277531724,0.026691346393205993,-0.069461737867255
CCL22,,,,-0.008695259071319846,,,,,,0.029109213547581263,,,,,,,,,0.023882798028663207,-0.006698013081661037,-0.017950093474635092,0.01697207580643163,0.0006668496273553267,0.0015920921358769222,,
CCL2,0.07974346738292605,0.04459666379088755,0.09169831395092896,-0.029163573608568867,0.09506855223761623,-0.019193569026999948,-0.0962398431653261,0.04840864618948571,0.06399016757579573,0.007045796560535742,0.059787830102869574,0.03420706993426009,0.09740782743849617,0.07120063169728305,0.031361308838696485,0.028731973802581988,0.031691543391715565,-0.03230132382322031,-0.06768643176123075,0.007223659260623125,-0.026189859963784878,-0.08295817044788908,-0.006274809366783149,-0.0647778554682366,0.003303874004768758,0.1517974824166435
DSCAM,0.033444816478397074,0.0830516235338269,0.005642406328514285,-0.08356915695058618,0.09477440239511295,0.08657805304650841,0.07768298124609523,0.018564233140752288,0.11245482307596694,0.003818587449090081,0.04675121019745288,-0.01529148177582871,0.019697359028123463,0.0832902182497131,-0.01293062628644599,0.03401584038650222,-0.007613224891544396,-0.10969035713640206,0.05492263891587947,0.08880646596147633,-0.04132170142756559,0.0730585575820135,0.05298620536820224,-0.06940829957764146,0.09369592441781584,-0.09004523666494924
GPHA2,,,0.028804096179222995,,,,,,,,,,,,,,,,,,,,,,,
ANG,-0.02885682389993083,-0.12522990189174682,-0.14816437710212318,0.004069385657576363,-0.045893938640403434,-0.10955509995495721,-0.05592932186635537,-0.03815093110849062,0.11954920402632163,0.005592236196484903,0.07320160668431734,0.0323051811344701,-0.0893822114542007,0.08937420956623064,-0.009875431530592504,-0.16304842634460745,-0.0015118620138928115,-0.08020698555230939,-0.04317418723500094,-0.02549498284372714,-0.006430651297991659,-0.0761833589995012,0.055654985315247416,-0.04551581030406139,-0.06747721567877492,
FBLN2,-0.013690794427372126,0.007901884209533375,0.013118746799243635,-0.017734827793589213,0.009717048203039173,0.059882870850283536,0.05457662683835457,-0.08630878897563585,0.08509636356618483,0.0009027085869995196,0.02063690762454903,0.017649179426278083,0.14206502760510292,0.007363011129019182,0.012489256623140476,-0.13148181539264872,,0.13184441008707107,-0.007537817252611403,0.03964853334481917,-0.07105578239463445,0.034590394301450215,-0.029110555052621105,0.03164181873863874,0.04878513033852535,-0.05981177317601343
VTN,,-0.02531526804133397,-0.02292492069252167,,0.03463929315026576,-0.023470595813557232,0.061598207355903815,-0.037613246400989765,-0.026454659487826836,0.051230447253213816,-0.014780725028302206,,,-0.007131715598521895,-0.09713933752034677,0.021123368526503088,0.02034081685607614,,-0.02576068611974973,0.07044069178883682,,-0.00995622268655882,,0.011642096857091439,0.045747660197533936,
VEGFA,0.0256277597372112,-0.2055892471637723,-0.1918310646623286,0.06734882953836245,-0.15074825015813154,-0.13322523766338729,-0.15173452655136563,0.06819592015824077,0.07867698098546642,0.06613777360632526,-0.03929764975995661,-0.03395976092926782,-0.2155217504139793,0.1594607063602932,-0.13462817645763311,-0.2567990261361371,0.0735243722607261,-0.1052337567477633,-0.11902568380707342,-0.03060087312158587,0.014648504030796131,-0.14937891930481803,0.045924700787763076,-0.13377310563598907,-0.0924378763476761,-0.08810221965795584
F10,,,,0.014644149476535428,,,0.0337390155435136,-0.013440745298316344,-0.020666741243543268,0.0010299132875628944,0.024382668610559977,0.002580435901015888,0.048842512116214945,,-0.04571918520421847,,0.034009071717905896,,,0.027792467637341355,-0.021959497239370965,0.025675720764959855,0.03765955970230613,0.07278007550280884,0.05515353009370842,
SERPINA1,0.01672050950899725,-0.011051120357582555,0.05448865513301612,-0.04587448144671561,0.08392490488190665,0.012507436370531325,-0.03763390569139588,0.07032875197192821,0.14917853060235675,-0.0044050583052438474,0.015015213885116526,0.01835772954201406,0.08321549125603374,0.10209171797068337,-0.03569440822429637,-0.12186197358792336,-0.04030200367844371,0.009424801586441607,0.008436015442655419,-0.07289412576687086,-0.128746834831885,-0.06180929387706054,0.06943023513442492,0.03538638695500726,-0.09164474701363781,-0.019732310446701262
VWF,-0.06326416143977494,0.19112850617893762,0.2156330829075524,0.012779745401900569,0.09617936438722971,0.07296654628267334,0.0891329182241465,0.06940996617843338,0.18013454237246992,-0.02361456370261435,-0.02504102777244935,0.01943771108098975,0.22237160733006456,-0.019866175669747105,0.09596340490958633,0.17677338183369753,0.02657681103064359,-0.025355042590486036,0.1236981792944809,0.03313929354749059,-0.051012444556764555,0.05143667016238491,-0.014830975510567616,0.07751536858157679,0.10122962200268407,-0.10976123605403151
GDNF,,,-0.057365621638019046,,-0.001462515945984369,-0.030202855236057948,,0.058672775206749406,,,,,-0.06510448100095757,0.022640779573437853,,,0.059907937357501065,-0.014293440615665546,-0.029292529751706223,-0.01476371007878712,,0.028565935230396584,,,,-0.046152376563900435
VASP,-0.003120915324499537,-0.007467548458815161,0.09007455391747243,0.014214035508787094,-0.004957506034306488,0.04810870650141931,-0.0065526184611032785,0.058590154290389544,0.11184840041070128,0.049479752256197385,0.029637892879294882,0.054709439371168976,0.09705324438261627,0.13823484898603353,0.04464373356901462,0.005443970874721114,0.005289580366874418,0.011948079259350458,0.08889572374399973,0.05274999039649933,-0.027087035099597992,-0.05550775154879837,0.04399165546707066,-0.09171887176740791,0.0038805704876146126,0.07077994849465015
ADAM15,-0.06083057990570366,0.1617539898119644,0.1375203309141339,-0.021822219257089853,0.06919841648177118,0.0467730460258202,0.059769409952079994,0.05126158503569256,0.11886653755639323,0.03463599105534571,-0.011712504432475951,0.1336379645397268,0.16520002519229737,0.04215683527437358,0.11379726103435302,0.06131947066598993,-0.013799737183998496,0.00023985704686321196,-0.009283542729549947,0.039144192164350874,0.03592629900481175,-0.0060837980588294175,0.03870335072130183,0.105354008681594,0.05504444617438521,-0.043417867490156435
WNT2,,0.04963152010673982,0.065210427115683,,0.06029738589711567,,0.030641366106421108,-0.06342649373966293,-0.11992743719685932,,0.034604424804651764,-0.021073435293362475,,-0.0767413315244697,,0.03379007458620877,,,0.038037017445813726,0.04150345384185686,,-0.021458439003179355,,0.010432379114293264,0.015876399615458867,
CALCB,,-0.022533770028200013,,-0.016393843957036552,-0.0498778767298767,,-0.08335372425671377,-0.0656264267851743,-0.06815604176678731,,,0.004633410650743109,,,,,,,-0.05567589982378859,-0.04266164679464089,,0.004259240148724246,,,0.013048669238625904,
OLFM2,-0.0033830733510829343,0.2703360942251365,0.11789414918429518,-0.004940967419354654,0.13799731214028232,0.09572772186223102,0.13390722388317405,0.031180637171015064,-0.14329163438766024,0.046949751652771966,-0.027895729928261365,0.03510013957597865,0.1800014687710629,0.037796947933039164,0.009014979123863238,-0.02905249491654442,0.046744191531554305,-0.06612463982963651,0.01235933913313144,0.09649178767361888,0.03742245462519076,0.02779876821205573,-0.0464592355618241,0.052380910216888676,0.12798897212147023,-0.027110884972592657
MFAP2,0.043766477469210724,0.04208675433456025,0.12637297750609422,-0.0031121337955144525,,-0.004567278001579706,0.051639993005826425,0.028793305575167957,0.10624333142647915,0.018276441154772508,0.0018537505510638139,-0.024923892343195787,0.23610357910944355,0.014071511395814905,0.04658452693898974,0.11861885748765795,-0.02475849526457061,-0.05571012477547965,0.008915307284484683,0.030506858822933535,-0.11969448892727547,0.0447559890776945,,0.045841430186365766,0.08541636253027199,
HLA-C,-0.07018435438212046,0.18390487648838583,-0.010866997437806147,-0.04435679141427359,0.044019786923765014,0.02202154550903148,-0.041156973659355015,0.06666554997445577,0.2595363396454825,-0.14041804749364886,-0.016618008976836306,0.03416502926355765,0.10352847338985663,0.11401581073240583,-0.040999660956428506,0.0871227958009663,-0.015799265409059203,0.0782671674144609,-0.012819017505680869,-0.04487944402018714,-0.0567761489774145,-0.050339871956287405,0.1067675365529037,-0.010719794553072173,-0.022391474975129902,-0.02915833981761516
THBS1,-0.08950930733987941,0.16330566688607742,-0.006927202798323753,0.017262452976142054,-0.05825971941921852,0.01848071885210153,-0.044241892235703836,0.05202398384894984,0.06857195353339099,-0.007296157299126995,0.03239555296670266,-0.10792799623651665,0.11004773023070548,0.004948566513995821,0.042028017582468574,0.039235108105438066,-0.08583808101424129,-0.10233642094163066,-0.01738048648033132,-0.003970205761090385,-0.0169855857010672,-0.05415935802242181,0.007165589912215529,-0.00181372408117796,0.05287748922975045,-0.07836190905380708
HSPA4,-0.021585663803899376,0.017518353785400044,0.001896354337640777,0.03397443386531682,0.06758567756061636,-0.06076169592624573,-0.027711145723784473,0.01003558920773875,0.007013384444389595,0.03693965097918304,0.03139491742405796,0.04386623922601713,0.10585568041021834,0.09556063468856683,0.0470625006707128,-0.07303662153125948,-0.06534108667626856,0.07185313519302162,0.0395527841550628,0.04097681139290546,-0.0015353484402287308,0.04130561640487088,-0.04243395647302444,0.045312149425463875,0.03967493272286828,-0.0414878751184809
LMAN1,0.00646002435307612,-0.10464975515432845,-0.07324493684834738,-0.029732211023747186,-0.1081374329787257,-0.08262666523959895,-0.09781149582749982,0.04866820233478291,0.21401370997054997,-0.01823918632676915,0.05113233121359949,0.05073420959014014,0.03128733129049715,0.12365610513115502,0.09773077438169774,-0.058551429409656824,-0.12087144789172694,-0.08294829466037432,-0.05415616847075307,-0.030099799511806077,0.07853225941743511,-0.0906354872830831,0.08938920248896248,-0.09572060068746893,-0.00041089826518029925,0.03996311051987547
LYPD3,,,-0.020170638324417085,0.004013640593639234,0.02929862432377815,0.03593555586662383,-0.017110326659303867,-0.023756066096453476,0.046938664323494826,0.02618117708423555,0.07268524585941706,0.02161091653431485,0.08686866497712639,,-0.032673012199084514,0.04435114221861783,0.1105258031484643,0.08519146112719801,0.04878024882008507,0.0415440448468414,,-0.008306314211856463,,0.025687873129563884,0.027263960376211194,
APOE,-0.03850863381582708,0.17810139133584169,0.03160859603840786,-0.030956530122274995,0.09261384483869559,0.09807481131962015,0.07740717123096341,0.07636406629286345,0.15404066025649216,0.05869831657055156,0.0522751261370261,0.1005999787662599,0.06809519643714959,-0.03499073038732362,0.13142893292956329,0.09111371247260856,0.10626260833843601,-0.04123044829578727,-0.0025965428006349193,0.06442538794839735,0.03126680567734522,0.11450804103642341,0.10643785188954065,0.12258909483774838,0.07909166982656354,0.15539613980462258
SOSTDC1,-0.056848278223789,-0.04401445690151879,0.037348786294501654,,,,0.033811289913676545,-0.002846549787160929,0.04610782005564862,-0.03555725322560599,0.03825371400687596,-0.02889429564958014,,-0.06973691355801866,,,,,0.024497277043849776,0.03598643258541733,,-0.015091847051947467,,-0.006146731470199264,-0.0001140772634695975,-0.10484033014651839
ANXA1,0.07219908540514144,-0.06234182898752711,0.03614650651970277,-0.009228947678592461,0.0026783420199195584,0.041651346146211236,-0.07052829456007487,0.1091084354633184,0.27483042506871475,0.006843454424386129,0.014824466177883019,0.10644463308907023,-0.046874731390242626,0.08249476763536434,0.09972557023275067,0.052236987060015116,0.004944922634943896,-0.11689321308888441,-0.06698790495843884,-0.013111158815744369,-0.01682381702428603,0.04782563281365386,0.0407954154246277,-0.022692518798307363,-0.09918388511233867,-0.03323776473900457
WNT2B,0.02918140382350788,0.05164343962396612,0.030469537411540105,0.008535537436140219,0.02527135054617184,0.036233250966040007,0.044414211359043825,-0.042015433298577924,0.085802286946965,-0.05521027001138256,0.0291083619100759,0.013007697220885375,0.045956169127880794,0.007981016808499245,-0.022373787516058563,-0.08186506766177988,-0.020565436524589288,-0.060678128136568345,0.021053699767232537,-0.01722292152857159,0.022526180954246095,-0.021291738455061052,-0.08606624987027384,0.05636790438522819,0.01179003814534824,-0.008987681662140801
AMH,,-0.0510387681265166,0.051538282116085146,-0.031947696346554075,-0.018924381233466025,-0.023362045843516,0.02755942852935158,-0.021252884152981297,0.0026439129892393835,0.006890643005662312,0.0121549457577083,,0.04627622208147839,0.024091086412833574,,,0.013512136751604072,-0.01793012824231147,0.02522366174185448,0.009499550755956054,-0.0027426849169384622,0.017815663403412875,,0.006193919841141667,-0.004040346494126309,
GDF10,,-0.008926801287679012,-0.027482069075804458,0.04394776280187547,,,0.029076903105676753,0.0327789597201296,-0.0682057519074243,0.022582578287079196,-5.0187554491475555e-05,0.039411870920152095,,-0.1521600426876896,-0.12819630931346768,0.10991845701039045,-0.05349990123823403,,-0.011970634750197098,0.030829910355275596,0.01999872084948258,-0.026143886373556243,0.019749600799317594,-0.03444151328682165,0.021811883472755134,-0.0633707881358055
EFNB3,-0.028051637081825866,-0.029478114450707967,-0.0015294376553146895,-0.016724034375013744,-0.025128376129598902,0.04083227811773648,0.0744213355930909,0.0030322325498096958,-0.1329739081351861,0.016946645089790557,0.038079373670073954,-0.08832110501948753,0.031013560306912054,-0.13055407756546747,-0.06058558168009922,-0.009127537831927017,0.09142325440702577,-0.0002865046671548828,0.115136752389477,0.103798031822444,-0.05838888757616258,-0.02630640841241526,0.06831489161691554,0.01729713156528225,0.004209247617634596,-0.10281739850402302
LTB,0.038660622543139185,0.0031475179203463064,0.0075800078804513565,0.012906580977131888,,-0.041437893397127,0.03377119972813511,0.0498923972490744,-0.06822324397718872,-0.013550026746006765,-0.04987137501842372,-0.0004244183013641272,0.06959605497638971,0.003746772218485394,-0.0025568507089049615,0.008778303923293884,0.03252820067932373,0.03557694504455658,0.029427830128133006,0.04306142045397166,-0.10814546665452783,-0.059555739288441496,,0.0447133434814299,0.010474887324454956,0.04928635596602582
ANGPT2,0.06024425268180661,0.06057300165222131,0.15746980439314093,0.05851484604312516,0.026546504571251968,-0.01332952572593776,0.009294151860376718,0.09100698130819507,0.22255588908326135,0.030095131798637542,-0.05640346563044385,0.016975976771502425,0.23932699409948086,0.09416624520850453,0.10042384023429149,0.17152637562766482,0.011834511099282703,-0.12094370867212448,0.05434688548943694,-0.03408748375622418,-0.05338954567284654,0.029592217936143427,0.12453518973924736,0.08886568212232732,0.09091017765202117,-0.03396322509978253
NRTN,,,,,,,,,,,,,,,,,,0.09346668976343961,,,0.01875315881555645,-0.01984493142480199,,,,-0.07553984174820051
ADAM17,-0.05153079312198928,0.14666952246054682,0.04833128219698525,0.023880797989643016,0.05577041237343405,-0.0008721133097514261,-0.010895005369810074,0.0775452579021602,0.13892131948724434,0.0404688207918211,0.04976802516282679,-0.027714869678767833,0.06245619305847704,0.10711914686818755,-0.009606713598168993,0.09915811811913866,-0.020210505172753516,-0.04382783362909822,-0.013052134700372734,0.03739394886809778,-0.007880387884058445,-0.00012463625108462785,0.09466041264803521,0.07803415584398364,-0.03341644559732932,0.0006388128353142133
LRPAP1,-0.0033421588634988497,0.06703186857248579,0.06104165175889573,-0.003551589379580518,0.08000340462988313,0.015208814489791292,-0.0025673743836749654,-0.01739628341211246,0.10103958317727461,-0.008830392881987167,0.005853825986731592,-0.04391650475751659,0.08410736413659917,0.026622940618627283,-0.0638087866801222,0.16794814581958017,0.040273845890609034,-0.05117838240446922,0.1021583674809985,0.03884061291285281,-0.05265514249029085,0.036375724560553525,0.059705990513315085,0.03794070183424617,0.125903035921253,0.06676439909119297
