,MGH258,UKF248,UKF251,UKF255,UKF259,UKF260,UKF266,UKF269,UKF275,UKF296,UKF313,ZH1019T1,ZH1019inf,ZH8811Abulk,ZH8811Bbulk,ZH8812bulk,ZH881T1,ZH916T1
IGFL3,,,,,,,,0.027331044341906856,,,,,,,,0.061258516325125134,,-0.016880324946391297
BMP1,0.036989819414585304,0.05408058010724278,0.011089163327193228,0.1645091232308826,0.014194578667704745,0.007481571121072271,0.13529756298159942,0.27842467440981106,-0.013226769598037244,0.08007669656294422,0.030381954047709842,-0.029060049070765794,0.047572185508864655,-0.12129420895705063,-0.08351049597624002,0.03914078031062507,-0.06382975325595987,0.07155302008053663
NDP,-0.007739607960120698,0.04505048235009311,0.0031112880868615915,0.10174832256094109,0.05217360529175394,0.048338138019270574,-0.01946342505111853,0.034887074621945076,0.03674519270866993,-0.003446491802547129,0.1408820853023972,0.07532637604698958,0.05343360636602679,0.033885515150610744,0.11233342325504297,-0.034527270203137374,0.026122013454434736,-0.0034528348111025225
TNFSF18,0.03313622324949376,0.11461264142154236,0.06601532178381435,,,,-0.0073306339887132775,0.1300811279548347,-0.01779229363110684,,,0.009594961106062557,,,,-0.025660713582213494,,0.09707350317292918
RTN4,-0.10264904142710098,0.07002336881167462,0.018184148462436076,0.11184026510921585,-0.015133954857902114,0.041202907139098265,-0.17721210786917863,-0.35972212708964546,0.02800130426121847,-0.032461444130649636,-0.022041192370833705,0.018882621172056493,-0.020042443182579243,-0.07506648957771621,-0.03665521989347979,-0.09305997734910075,-0.0558448495090355,-0.08094454043610318
HEBP1,-0.02029844719934534,0.057749866984705564,-0.016996706590559362,-0.035785600338188596,0.036557658244309885,0.0254897719597643,0.06903388960525328,0.1308981866417352,0.025388933474934077,0.06860944768971769,-0.016061542300678838,0.012619032048881587,-0.012134742711018744,0.06342949243912721,0.005446475454527208,-0.04216767044667867,0.029040150656416706,0.035554235693836915
WNT7B,0.039061970967769255,0.017875789466468287,-0.01957137896910815,0.05115626275519715,-0.0013273310764295347,-0.005445971561895541,0.03763486924701607,-0.09624061975040325,0.009432709720785375,-0.02777950553496529,-0.020828493744658675,,0.007819192829910919,0.0063142049757804325,0.046592105744743324,0.013826221048993455,0.03933828174348952,0.037301304106238595
PTMA,-0.011353995227611638,0.2017148064209159,-0.023390461795707144,0.2246688711278126,0.044374414080805634,0.0878921564916095,0.22579087108772014,-0.13456189882505645,0.006350764996465737,0.04650027414859336,0.03971927663312859,-0.05962758449339881,-0.16453719654664048,0.016974267802536986,0.017301045652941934,-0.04516888647850959,-0.0015575696478773667,0.06894145560690094
FASLG,0.016974246917898977,,,,,,,,,,,,,,,,,-0.0146403000671991
CEACAM1,0.06079533933214578,-0.01276252186763837,0.0946300371432775,,0.048882374355316616,0.014433316168941827,,0.14454136593613548,0.029756931583051514,,,0.01494857838854124,0.11866420967610723,-0.029633361549541423,-0.02033984057590927,0.07388662917130602,-0.01603498306079712,0.0004618260434777929
PDAP1,0.10869620593238398,0.07592945123378184,-0.0219140737432078,-0.04579977231319419,0.0610227272164912,-0.03577843754269581,0.10082154680110095,0.2654574665613898,-0.028657110519886928,0.014313088271276564,0.037197133837438036,-0.023030731767005926,0.07891841910508278,-0.026381435782352032,-0.06284899878549526,0.09248795172998131,0.0015030121110179934,-0.054422467297589
QDPR,-0.08096247978509474,0.09084687904115614,0.021369783518285532,0.13193429914984103,0.008081959919900511,-0.026253867305579163,-0.07617107768651438,-0.28870884751095544,0.04733534466208052,0.03281584443203648,0.023684997478966557,0.00502103499227729,-0.09125450612454249,0.1273459409728135,0.13847307663845393,-0.018682456667707594,0.012313918113731727,-0.022645918216151112
POMC,0.04427831183813494,-0.034048983765578765,-0.026687888195370862,,-0.005928711573081876,0.06711596825705869,0.006805442398797096,0.0774410984262997,-0.028174089666981532,0.010654788846418512,0.16433580960940983,-0.008138659871602711,0.059880936887467484,0.04160267768902388,0.016839534596018807,0.040788056346464555,-0.02623112584178775,0.019761133019458435
CCL18,,-0.06852172885943013,,,,,,,,,0.020111835797501875,,-0.06125340430948394,-0.030906457077021603,-0.058569413403312724,,0.08914033128674209,
CCL17,,,,,0.026922040966574114,,,,0.0027586976799869435,0.014554727747793313,,,,-0.03446000293451292,-0.05898583363029889,0.02830489323530949,,-0.013269787617991536
VEGFD,,0.030559498215209653,-0.021512930610359127,,0.01661932563452928,0.04841244117278723,,0.08493671940696546,0.023571874606207216,-0.016650419872600537,-0.02089419832850426,0.008130284783825107,,,0.020171935128388215,0.05182734446728498,,
TNFSF13,,0.03898576247329474,,,-0.02550253274983035,,-0.02284612517918311,,,,,,,0.08566974140112549,0.048033571856644745,0.07833421888074732,-0.018006211272057714,-0.02162201133934813
WNT5A,0.022934463300800872,-0.005281221589708998,-0.014491746149640947,0.18469946850565302,0.051662044712074244,0.06265295184977136,0.20506238137809957,0.23306534772004617,0.048105278282379434,0.092213809782699,0.05187478619421462,0.05032529901764532,0.056132307183937316,-0.040636780897472954,0.00876813194523205,-0.02357433164294589,0.02129008098548222,0.0020026948684477353
CXCL8,,-0.1122219307659466,-0.020143433111477368,-0.2875631248141983,-0.06458466158114493,-0.0932108569872763,0.013466905843203515,0.13915077823054164,-0.03285798544944747,0.008571000303918176,-0.026319993271887762,-0.033599394783143326,-0.09246362726763564,-0.20603137429365057,-0.245414361967602,-0.03522100172073807,-0.014650306538087564,-0.02984676062609879
GRN,-0.10537991128250714,-0.01564188639638741,0.019392508393163706,0.1948400158708571,-0.04505852367001453,0.07990709255130084,0.08761997135162604,0.29646019381764827,0.021215822683928326,0.0030835506200538126,-0.07053198948838489,0.0009135952954368857,0.037074304674744755,-0.07266606184725692,-0.1016988696759357,0.027040623201198058,0.06049884772407064,0.026263584299458177
MIA,0.08054580371587343,0.011396805523877394,0.06648933937944583,0.04119185549240279,0.044263693418475206,-0.0433495827937211,0.08517461883008225,0.1984072752056272,-0.0528104820836875,0.005912422007757215,0.0435041921964882,0.03563510127168991,0.016944894687232682,0.21260652979393307,0.17537903022887538,-0.017317040652460033,-0.022782382884401344,-0.003637412189112774
COL4A4,0.0005177787551326996,0.06437167025074257,-0.0013260754781996315,-0.010881137855609685,-0.023208532737185355,0.042040822846797665,-0.004668028936377927,0.043576688575350714,0.0047819190117273,0.036243192516279416,,0.012811321468165812,-0.018367518475739544,0.08233291846829657,0.07363620480786252,-0.05053487137146496,-0.008650469494522195,0.004746429820346935
TAC1,0.017563059122023123,0.08555369234008987,-0.03666313013736544,0.21711711512705634,0.11124046464567054,-0.020217215405714795,-0.1485959392277846,-0.20362860903660754,0.03307795497162898,-0.024600921124711492,,,,,,,-0.013967689072407405,-0.01744448515264823
RARRES2,0.07263751122161763,-0.0037039333804075557,-0.0055420834554022235,0.037275735789627236,0.09475842655814233,-0.039452860537492376,0.11107459679938639,0.3089017250889406,0.1334529600546616,-0.009903051297855346,8.899237471019662e-05,0.023772289047659767,0.012031793897295771,-0.14064620308431963,-0.1627237111916328,-0.03417961232233773,-0.06624068851099249,-0.06293216785379555
FGF7,0.09138897475787491,,-0.02428132010530355,0.0020138054586305056,0.013175807803809397,0.025376534245988902,0.038224724721595986,0.08074935727730705,0.07071122009278681,0.04480757428780028,-0.03600897774890652,0.10880710547694684,0.02608033875223863,0.05178100002432621,0.0582986882802667,0.017806473493773605,0.01406370323170318,0.012602691986267523
EFNA2,,,,,,,,,,,,,,,0.04047353177141292,,,
HBEGF,-0.03828650478575092,-0.003458125210594891,0.02210981290588415,-0.0386945466347296,0.016027883900677525,0.007434536529808293,0.10549481493514973,0.19345288908245134,-0.049747175406676086,-0.008209876290480993,0.032474582980879865,-0.08872592466767493,0.06809317551577321,-0.015718496832965494,0.0023666146492854565,-0.024720056317539405,-0.009397109917913494,0.0010754107280830708
CSF3,,,,-0.042300133063253004,-0.04406752921851803,-0.07025348347094433,,0.1033739763634405,,,-0.031389902396929736,,,-0.16906432677127398,-0.16213484118753063,,-0.022988338574946296,-0.01397103925538752
PI3,,-0.03527871498340844,,-0.1989300331209164,-0.040035540312663376,-0.06329393792771039,,0.01775012737076037,,,,,,-0.25964178360952844,-0.24549582526530425,-0.027873981483538684,-0.038925519985822804,-0.030354426879182463
PCSK1N,0.04204314060552639,0.12008920708744916,0.0007434448802272365,0.22054294003650912,0.0284588811643247,-0.01276204234829237,-0.04563041319715809,-0.12749247250836782,-0.02688275690896012,-0.04360511322790801,-0.04113820835745576,0.022649527853402657,0.03778050932436575,-0.0430110874946305,-0.00526113983784377,0.01735982194944558,-0.045347378151283556,-0.041996826410069875
NTS,,,,,,0.11762814181683477,0.028954627977625415,0.0360919348672744,-0.013609162067946618,0.04917363702350278,,,,-0.032733534994938494,0.0743213159500492,,-0.014869612144973052,-0.020689204029306508
SFRP1,0.04018830637441707,0.07534917394738495,-0.04185360181476683,,0.06846780187819655,0.02386501170576401,0.15058713506537028,0.08379997766548714,0.08498065156747613,-0.0481216044328841,-0.055379560721171735,-0.03911747494218412,0.09787199955031305,0.013784815406085149,-0.0002911593687367897,0.05279048689893039,0.025144395006061967,0.020824114858725092
CXCL13,,,-0.01773764576697953,0.02504153296535214,,0.06554078813376757,,,,,0.001075773087963222,,,-0.042598380922257734,-0.07913572372114391,,0.016600859690580762,
MICA,0.04516908378442442,-0.016212810289995196,-0.018329459212111328,-0.03284636710031054,-0.039742587309928946,0.008681628108027768,0.013090992566696285,0.1799651234034354,0.019983533791493646,0.01978986027588564,0.054972425068721485,-0.04533706859446111,0.057582229646405116,0.004678389164716025,0.041822778468716855,0.019915188929588937,-0.0359961384011882,0.00840960016379223
TG,0.13953683477,0.1288860640278049,-0.004653625395185265,,0.014668959649955607,-0.02201678227031884,0.019203994069323393,0.03209460660531795,-0.002169047199152117,-0.010499798125637502,0.009023726945667993,0.05613817795772818,0.029873765868985457,0.02221508524100162,0.01196948593254202,,-0.018919755899343405,0.03845921760472528
ADA,0.04826031484395086,0.01828244501956492,0.07861385128031655,0.05307779936072735,0.025567774008546797,0.13763101388352061,0.03587567168177384,0.19805382217101172,-0.041794017003882,-0.019515906225621993,0.06849524753831895,0.07180702494827204,0.023131633769329585,0.09902604380871233,0.10639427930795235,0.02156462216980493,-0.03750655836712715,0.081486617805614
LAMC3,0.045556665509950335,0.00428930585000338,-0.026196769591572185,0.10882553020069526,-0.016466678793733303,0.04014690192872053,0.0889995104044898,0.24013955834667183,-0.022683628255777355,0.032408239050902406,0.027352033777449727,-0.010566683872300699,0.03597206198298176,0.10454804456876497,0.05365692794154537,-0.03175278513221046,-0.002303937626799336,0.029126491900892053
CCL7,,-0.03903849791639372,,,-0.02516989693214414,0.005284210375135431,,,,,,,,-0.051647601346729126,,,,-0.014640294861283145
NGF,,-0.046675574483633665,,,0.020791768572100446,-0.025611423123122663,-0.02922883360312351,,,,0.021915543647961982,0.034789038121813616,-0.05144944677551202,-0.019579382726478224,0.0951062140802047,,0.11128518407835448,0.11612225298963606
TNFSF15,,,,,-0.028027911277831986,0.020950315432612308,0.10559358613875339,,,,-0.01998970683515726,-0.1152932924697354,0.04641032274075488,-0.03148304273391451,,,-0.01427536359396378,0.04178639708774496
HMGB1,0.028050908694243423,0.10577654584002931,-0.04118102183361493,0.24506375748852738,0.0984851546763562,0.042106576813356854,0.1000748312068179,0.24654193144033482,-0.019196979559422938,0.026943816008775313,0.04954219126804256,-0.07967628386245787,-0.035356400201535826,-0.08155019945231619,-0.06370916408532946,0.05446216386646551,-0.009873331554356239,0.003853737189086651
ITGB3BP,0.005673936574502129,0.03428536407065685,-0.04916066952944558,0.08475309047091192,0.013927036533371412,-0.0024886030056418735,0.13089742096163542,0.2587520234749209,-0.05422856531209668,0.017429746263093574,0.03946807730883218,0.05927349951797481,0.054347334057750635,0.03466987617136441,-0.0711849237045705,0.0975102542795598,0.043292694977551775,0.05476262934699059
AANAT,,-0.001349048246916258,,,-0.02550253547166713,0.0066193323436800865,,-0.03861788280429602,0.05659850006910544,0.02652483589267647,,,0.007493984040609632,-0.045309519522757226,0.03930211912164015,0.03786834953100874,,-0.015490042495422721
RELN,0.06772711452468758,0.06601242294302333,0.010093595237282114,0.07247259017827282,0.050717667654853235,0.02613131877464185,-0.0618419634092193,-0.12158508834111931,0.01809670005000391,-0.030062460754378444,,0.010155596484827435,,,,0.052548102042992574,0.00504840338179377,
IL15,-0.030514473767689496,0.03061301241519614,0.0006347802483247541,,0.012989129954581161,0.010136077292094408,-0.025253395650334402,0.05616233214368349,0.022997280821771597,-0.022344645502026438,-0.0010804332011030062,0.017903282960299898,0.1069374281245624,-0.03792040367790508,0.01392230438344523,-0.050534864967363397,-0.012825795117515776,-0.012241625553885811
UTS2,,,,,,,,0.1928330335993734,,,,,,0.047275653444060435,,,,
BSG,0.12466773524150035,0.13981005931229576,-0.029710317615026936,0.09635055440511907,-0.06687598586592633,0.039322153420631015,0.1325153149553172,0.03295982774218065,-0.14814263599233857,0.010460033128212549,0.0072833324259905805,0.05694350115778106,-0.004367035348076934,-0.11361595847870219,-0.06718119457590846,0.08910144406892198,0.0005019574465370837,0.014825320191697217
ADAMTS3,0.03209921771280278,0.05006042102305181,-0.026851676328653977,,0.038038688251973506,-0.013906188054268265,0.00797217960534068,0.279320256051275,-0.002796315776439812,-0.027995660872802468,0.004455632741710472,,0.03486176194650968,0.12089235676233957,0.04846748739784208,0.00257066665787449,-0.015328295567334864,0.07214653736087362
CD34,-0.03507411007621163,0.044824721621485264,-0.027858407058360804,0.11827498559306936,0.04244631453430798,0.14011796117278766,0.04621992194542908,0.21802561576188426,0.045687728123628535,-0.043000491312861745,0.020421316690043094,0.09820845816360006,0.048528604259277144,0.07056217301069372,0.07482934923006797,0.013047594695027297,0.0028524163934017413,0.09199609775109568
CCL23,,,,,,,,0.04701168374632399,,,,,,,,,,
PLAT,0.10467414874119911,0.16926665619210765,-0.009341930306252957,0.19588327983558015,0.02528239536446462,0.04854224993661322,0.16946618128269864,0.3049002092974546,-0.09883296521268055,0.015974152264286688,-0.04353629691758576,-0.03583713977633861,0.1355896856539489,0.03724853074705447,0.14920272204278678,0.042566581720441775,-0.0716441463205555,0.025720117825498597
NTF3,,,,,,,,,,0.014708989386593043,-0.02418774202226959,,,0.031761798731795514,0.22537504200153313,,-0.0084362830016781,
LTA,,,0.00600728176743326,,0.014600517836255175,,,,0.0351919839285638,,,,,,,,,-0.020847262793409
CKLF,-0.014912407735608086,0.14746789420448492,-0.024748170565496025,0.06526407698425947,0.027799893903303136,0.0015843382218730282,0.13988243711620968,0.3495300121352541,0.021118921112211732,0.04770647541848131,0.06027776188880079,-0.031304419562303884,0.04217225267844316,0.1211795004324067,0.14699120273643657,0.04925103569888598,0.006068498441449954,-0.02751310261886899
APELA,,,,,,,,,,,-0.025886750550258672,,,,,,,
CD24,0.010056958523597108,0.10697007484429458,-0.038380364124567266,0.05070616024685709,-0.046608915461336296,0.09282113165601999,0.06325883969634322,0.05054761553680139,0.18705301768826677,0.10501854476174531,0.0077129519010861024,-0.0329770302850101,0.012904087541476431,0.07650123387389511,0.07092040085437809,0.017619738847777927,0.038528844112507336,-0.036588864558041424
HSP90AA1,-0.06157858588341588,-0.04264385862003837,0.0002113832562296215,-0.26197613697515093,0.1015817052591627,0.0016852538481571052,-0.14947829030366006,-0.29900819824176744,0.11319356741305689,0.033124770693750034,-0.054481442377597354,0.0669444498193607,-0.06961647067204918,-0.33885991089306683,-0.2808491032537075,0.002203667267967258,-0.036870500720848534,-0.026423811919961543
BMP4,-0.021578933372493815,0.014619838091346227,-0.01592192969071893,0.04004538434491104,-0.04961048743505031,0.007248982137893183,0.2022337177679572,-0.0019574775508796488,-0.0005887512856814473,-0.018762015605142925,0.0330497466653008,0.03845859119989966,0.10033804066887748,0.08936258855576364,0.028055449868326962,-0.01100606501161654,0.06500520814509315,0.029639392931290722
SCGB3A1,,0.08217474731811769,,-0.022765297722469255,,-0.00939974110543601,0.05070071065957133,,,-0.020350347037417556,0.02284049796046364,-0.10018983048564092,,0.03833016754347835,-0.027558823107168028,,-0.029645425678961557,-0.00406536804543656
IGFBP4,0.049786141418084386,-0.004070536572252888,-0.06193771659260106,0.05115853455300257,-0.037301202731811436,0.004384832655811689,0.13346916292576338,0.2862258283508897,0.027638983806214497,0.007965971852885617,0.0718748482915059,0.0011636921539735833,0.006426379893375849,-0.046884658341626084,-0.1566538146513482,0.014139333316228667,-0.030122716597344265,0.06727922461450975
RSPO4,,,-0.011083891416018402,,0.09934606417756886,0.0016918095092003087,,,-0.016530636283183128,0.005289835378275727,,-0.05214346195337415,,,,,-0.0007658838195417748,-0.012174610618889305
LEFTY2,-0.030579191386129776,0.0023864415956527914,-0.015204324466533874,0.12398225727915256,-0.03806807820906066,-0.002426278326691659,0.09337102363798981,0.35039531682402075,-0.004116790634966247,0.026613445461082352,-0.02260215883197318,,-0.026329595515138596,0.007461908431119887,0.011557964482407618,0.021058950464325796,-0.027150989274334646,0.049518357901349924
PF4,,0.036033571356399806,-0.013662602045735897,,-0.021960239196758206,,,,,,,,,,0.04440330427964443,,,0.05716274072072563
ANGPTL2,0.04811711172720216,0.029874367893294815,0.012388184475351772,0.1883195423160117,0.0062440104450373415,0.062065534355218596,0.21473628237380937,0.23794958213440853,0.09095361107022096,0.049825004228410574,0.0002636542414065046,-0.06259129343661227,0.04838896631184499,0.158082859833198,0.22224731537624087,-0.0790670062793476,0.027389102680975174,0.08975641735204323
LRIG2,0.03989152584333278,0.04204132606779186,-0.01210934742565304,0.06885760327617624,0.041839601682827576,0.0751295981821454,0.09202085753697452,0.10275450981926756,-0.004963910652413631,0.0012479123873633585,0.019407143353869363,0.016287390506671502,0.039988071707935696,0.08992442140042757,0.05789100455903886,0.03174808706208571,0.011101339960771298,0.0429808128307121
ICOSLG,-0.01188881357224774,0.045127900297558955,0.038892869555172634,0.09098915515018732,0.03367386465858623,-0.018463369847480805,0.17798836845662183,0.16276809142983312,0.02086128023051614,-0.02479284679712889,0.05091957095045755,0.09113108510376587,-0.050425745352086784,0.01337760249792915,0.07659529673101043,0.005653904505857303,0.025318055841903848,-0.00608033933219938
WIF1,,0.011141558466955657,,-0.07603605570154125,,0.021961381250038676,-0.13029312157719383,-0.19495513707449233,-0.023467017196352653,-0.03145406200529138,,,,,,,0.06274117544665024,
NPPC,0.04988824706374241,0.003968963280874897,,0.032766769543701266,0.05384335397872451,-0.018417282909184846,-0.02848259581214773,0.052183749978208974,-0.020896397848499136,-0.04508824291628756,,-0.029676073738595755,-0.021466764260405495,-0.007693028879622077,0.03127809305460725,-0.038498465153817905,0.009963137800046897,
LYZ,-0.011341960420633712,-0.11050758209954549,0.034144918311232036,-0.011264210884450813,-0.06684154672707952,0.016084199113518417,0.06502203506850657,0.16760390697331984,-0.01097280755157364,0.03180083012196275,0.03672694363769305,-0.050239216589832214,0.027017061841761524,0.0051763662010182974,-0.01207892977196424,0.04136894786097565,-0.028658191756796052,0.02010769943265776
EREG,,,,-0.015694826332076986,,-0.010756242809653472,,,,,-0.011091701740584447,,,-0.0824585622917038,-0.04071231313925394,,-0.024866660107190738,-0.03148418851798157
SPTAN1,0.07995176717002629,0.21534621514330543,0.05553607426167906,0.206116930809533,0.037964985235849576,0.08357585943693502,-0.01837485799732832,-0.09668713589346277,0.09430253296520057,0.026906442248120985,0.02198909612521562,0.06690823502568935,0.1114510781668443,0.022952703730153477,0.11605918976792609,0.021721490449577583,-0.004100356698895557,0.06493333069610815
PTH2,,,,,,,,,,,,,,,,,-0.03175089391854905,
LIPC,-0.02939904033642048,0.015774113691937784,-0.020562946270770783,,-0.016049835162143446,0.0654324145027937,-0.039161541345181246,0.11487080801785816,0.016085659064440067,,0.016434619783587328,0.08951297513684396,0.002751718374935768,,,-0.03551412754710743,,-0.026358824712740793
COL8A1,-0.03460064205344475,-0.10223204313895556,0.051659974662797405,-0.04116094473940406,0.006542941993675987,0.06320757874649559,0.22023455959931454,0.16139821297697893,-0.03173062459266008,0.01576769138831578,-0.046352331029899566,0.07617752025909638,-0.00878370179744192,0.07757007364725275,-0.018025325555747648,-0.00939315803302916,0.058749642958530836,-0.049848972125925914
GSTM2,0.04260906865271837,-0.03945132590132941,-0.02993828986470762,0.05400442457693328,-0.009976161387247629,-0.014829935769772101,-0.02135514645802655,0.09623548978335415,-0.07891856415680965,0.002482797130051029,0.018255770857555184,0.04925630937779794,0.04630863645084936,0.11713617589166021,0.02571859903959269,0.002697055764359442,0.004534580794507284,-0.016213977264572268
SPX,0.006342747050195674,0.1232451394980814,-0.004467506905058894,,0.07882527216727227,-0.03414034140131164,-0.06829376115802553,-0.11336121044762411,0.04177573639273938,0.04455689396166161,,,-0.023180728323539936,0.00794169017840701,0.10318459956791272,0.020150159213975404,0.12637569102283702,-0.0211074568653748
MFGE8,0.11235840047075225,0.020363895781829348,-0.021209127341806935,-0.0026843331090173573,-0.012314316943504813,0.029068079517857337,0.09842678422522746,0.11041220007178768,-0.04355030058288319,-0.011480727346334004,0.017446489226447988,0.09904072312423205,0.01732395510480147,-0.0012708149008107703,0.012155627145514809,-0.010341628491454664,-0.018409785319954346,0.053151506418577084
TGFA,0.04851298174655969,0.12687934844800217,0.003348823955706649,0.0282581636914267,-0.007697987787874173,0.036592667876983405,0.11729743400764567,0.14351350627818316,-0.10088986788973442,0.03283983563560181,0.012103977681414435,0.014696353763502366,0.03640363559367184,0.0514014879218757,0.15216158404895316,0.06762433835935017,-0.015789097122798527,-0.022302261530381805
SLIT2,0.08607021582744412,-0.03289362744137847,0.0007781433535899213,0.021123651832270683,-0.016573112636184058,-0.02266738954205214,-0.03810755700683446,-0.09483198198005588,0.012141649299545873,0.019103051151402074,-0.00033911655613109943,0.017378345390891312,0.024310210517399337,-0.011258042756030562,0.0565863456642615,-0.018465585833991036,0.011592748655192657,-0.07090113969740396
PLTP,0.05357369373316401,0.014634453092568504,-0.03995804859360789,0.17608208762458522,-0.04356873809430242,0.012070174158257986,0.06289800773748419,0.2800249358116695,0.08170755679307277,0.08661763699363115,0.032969683240480045,0.1406178586241079,-0.0034997689520685216,-0.08028927723291297,-0.11986796558773474,0.03040936288115961,0.012786780426545463,0.03804349372913183
APOD,-0.07255593613658638,0.1330857884473323,0.009021373520411212,0.25858519307496897,0.07141221881110499,0.06595190778033883,-0.004371739973482151,0.16718010235244699,0.13160605486403762,0.004654179661920219,0.016080525334022072,0.012192040975955488,-0.06707587901214469,0.2828065548752448,0.2712240244231328,-0.023671710448909703,0.02527534119675007,-0.05591018576228395
B2M,0.08425864502001652,0.0025344002411280923,0.017136475503121033,0.23084793097081527,0.033501341176213804,0.04243622606394253,0.12242020605864903,0.3640823220276211,0.19569629559399185,0.06486966717945021,0.09380605031998109,-0.018973631699614125,-0.08830347093340071,-0.037241192027220524,-0.022907676223366445,-0.011110881292014879,0.046316390461055235,0.03812724512730851
OMG,-0.011615644450226038,0.20802736078473516,0.010349935839822683,0.1821083832291586,0.09255464905973004,0.04583797021129641,-0.04197193062900786,-0.06209335305135981,0.12160021748935534,-0.03448815127745669,0.03054209690887792,0.04449498088517651,-0.03429681560965774,0.270887963355675,0.23782746730126392,-0.022415054742138143,0.05828352027674594,-0.04197217209206202
CXCL3,-0.03485441439048382,-0.060541309456144374,0.030665114612963496,-0.018748984435262343,-0.009669404228899137,-0.05690827645055151,,0.06315601603018783,-0.0908665372004029,-0.018781491458383585,0.06026816416869391,,,-0.19931191102404933,-0.12513902702775695,0.007369898438026225,0.013319285748925441,0.08634856496891889
CXCL10,0.010953763105204994,0.07343034822182815,0.03803235174083513,,0.004265401782893026,-0.02343752314882508,-0.03451853094778438,0.29051015482979703,0.11499272181390165,0.004521304119541995,-0.02280733822847506,-0.11905053434949517,-0.012591991862581697,-0.053332774136957604,-0.03854873324042879,0.017723010384013502,0.02853543797091556,0.0472785303097238
RSPO3,,0.0018466448725071322,,0.12914514623102952,0.03235967059109052,0.011589808858462732,-0.039384124810689945,-0.07872365158134748,0.023159328329793304,0.01625112098461511,,,,0.0907506512304933,0.09632593279813097,,-0.058134650008125066,-0.014857036514230358
CORT,0.04856182494286486,0.09181766002750952,0.056650073177279756,0.1031925143681747,0.0022108340345166917,0.02742914112391637,-0.013408525863378979,-0.09361342631109697,0.02388170379511511,-0.007889016617658406,,,,0.06722999423879361,-0.025186126343032824,,0.026367556840801585,
NCAN,0.033114933869169666,0.2682997022758695,0.027512226019984955,0.1869891599392933,-0.05686995220881061,0.00931317867734139,0.09437327613389268,0.13255852161177759,-0.10894077957136597,-0.06194581118314535,,-0.0007082010530878442,0.101485885289528,0.23270863304022504,0.25550889638912866,0.050665311997342075,0.06312636616324362,0.027175166734125577
PRG4,,0.016137872112748655,,0.09336426887110623,0.024553113857127332,0.034512549928384144,,0.009231654761562067,0.005722012638682103,,,,,0.026859315935267747,-0.006887340354572722,,-0.016856352337532885,0.03582997350100017
ZG16B,,0.004924211648681268,0.2023189153317835,,0.041382494387963153,,,0.013814329271643555,0.003471947017391452,,0.05294371892232333,,0.02314249223709481,,,,,0.1429580448845841
TGM2,-0.016761127789008175,-0.10262624909729,0.028464457343719447,-0.11531683085078634,0.0019275291963879574,-0.08585611821538117,-0.021413134558125616,0.16637522225565834,-0.0020319816382393606,0.008458895788612617,0.007687218257800593,0.06699812748119141,0.04219280225393413,-0.04795878859804163,-0.09828744391991394,0.04894537599681183,0.03238398590429198,0.05542824042305343
VEGFC,0.12301483635809275,-0.038261276789356896,0.024915421915199513,-0.0224457925616941,-0.04485950280872087,-0.00010975510149570233,-0.04469492881967574,0.0754190702942102,0.008506308841925084,0.043697782142424896,-0.04183879106681831,0.07646348446667116,0.00330181904782384,-0.003445628589670055,-0.02798462368557862,0.020038430002886683,0.10004353566045861,0.057315655024277976
WNT6,,0.025255674460879673,-0.015204324865563817,-0.04725739400911103,0.036048513362281265,0.0123956380008152,0.004017748106099904,0.11958892675146165,0.03696668810768556,,0.012590815992085294,,-0.06744683401978024,-0.014220613344483634,-0.006826888761176934,,-0.012471269158743518,-0.022372896531560812
NRG4,,-0.015721441662016195,,0.11109480135966408,0.015832175678543045,-0.027929525857138936,-0.008913515564484385,-0.00970578270826638,0.01636313004180648,-0.026162142076447355,,-0.03552007281885822,,,,0.004674736019004933,-0.026364211442557108,-0.014857038179349689
PMCH,,-0.049051752110636365,,,-0.042444896078719874,,,,-0.015697519721665335,,,,,-0.04364407342533749,0.05732592394015523,,-0.01517942443260792,0.07401592426528344
COL9A1,0.07155743611174212,-0.05207891094223988,0.024610456807029404,0.14185827161222547,0.004562815623331413,0.00037920219034152713,0.21348092672170335,0.09638755022621744,0.003953281787424319,0.033409707611018094,,0.02611854028583106,0.02865117160767254,0.11614372088827433,0.2069433147028576,0.059117673150062895,-0.00923254684567596,-0.0266711349672708
GDF11,0.07205215933504815,0.08951706185473506,0.03144567248589364,0.19955023932155344,-0.013115274975357725,-0.011124558148846686,0.20572546769982317,0.2035395311032191,-0.0034386536833426002,-0.02016055480231843,-0.041000162410817075,-0.023719541000580893,0.047287619942288715,0.10496221655649772,-0.0011114092025843075,0.03249613200083156,0.020718113793925432,0.021224243247980834
RAET1E,,,,,,,,,,,,,,,,,,0.008409641103976377
IL24,,,,,,,,,,,-0.018802089759494753,,,-0.039139925268391586,-0.035028251542066596,,,
SORBS1,-0.015763470922458753,0.051166789544928724,0.01800093495968776,0.2002618928649558,-0.009400113291090128,0.0418839599376739,-0.004227055794362747,-0.002329058978163917,0.04548365191926596,0.003679894129255231,-0.03992793149525416,0.04570678173758115,0.08353477005511986,0.0001204133694448866,0.011563298239040055,0.06332068145281387,-0.026184055116436136,-0.04398465154960369
DLL1,0.022019983730919606,0.1383577568707042,-0.05353217443329541,0.14498345485739336,0.08418070421172631,0.024038382169263267,0.12843424459279718,0.12545243572198087,0.044454245678209034,0.043336062277693876,0.03158102921586687,-0.028358202695079868,0.07717547671982213,0.18855467198164336,0.266903299285319,-0.06804490015821286,-0.007924028638629014,0.11488848871275952
TLN1,0.014540295033153234,-0.04685424899344152,-0.02920607551539069,-0.021697573506082587,0.018657001147346364,-0.020524472457215885,0.16534388781632242,0.20386027371795679,-0.06404314594691934,0.03581463122485453,0.060505473845570805,0.069049092337561,-0.0027618683212222743,-0.08228359909645784,-0.06439118782896838,0.043813444587597186,0.03430611391707785,0.04386714349736227
COL2A1,0.06423404998465847,0.08730307668213233,,,,0.004624657396639375,-0.014969807251429034,0.007137717075538739,,,,,,-0.07573052532657802,-0.08644866146744888,,-0.03197790302308896,0.05359029718664051
SHH,,,,,-0.004253156263941267,-0.07112256692538345,-0.007030206402399457,0.00906168461014334,-0.05291227962750073,-0.007438972021276709,,,,-0.0255580724045295,0.026988927305634174,0.018682870761873308,-0.00664752491813874,-0.04328021529184689
PON2,0.07262950920378712,0.24710688077137719,0.015241330747265146,0.2499232958914506,0.0895390630381162,0.05970663631177331,0.0076234615085694095,0.24990927140176544,-0.0687370535050002,0.04917943727866066,0.039224902040839386,0.0809120853341375,0.16659188898351657,0.14216655602248518,0.16783164448204,0.015733469626044206,0.033152489384793524,-0.029375878722477388
ICAM5,,0.05567175033029528,0.04554827460559294,-0.04322084399655347,-0.0020305190565735013,-0.06439768183091478,-0.02024558449448356,-0.11150873639847118,0.012760659694001189,-0.017106026900936967,-0.01779848814615305,,,-0.04065728025566816,0.027898392921071696,,0.033522945805950985,0.03226879317449286
HPX,0.0682964305822459,0.021033587210285847,,0.056371813788018185,0.06340616778360293,0.021421029264996973,0.07541717013239047,0.1242015303057299,0.04564064187884315,0.013145755554337618,-0.03534087188891103,0.013603885671347873,0.08022451676713195,-0.011673468883675884,0.05992402913252545,-0.040579856733357365,-0.031878323743812546,0.029937034212918663
SFRP2,,0.04105132466611209,,,0.11237444470040323,,-0.03729683081249155,-0.010575461768814458,-0.035430854359109504,0.046657762791834576,-0.01855600179380924,,0.023010048387458102,-0.024281408413385115,-0.0488294768070306,0.01875197210263485,-0.023220106761247212,0.012057146338684255
CFC1,,,,,,,-0.015517643336540045,,-0.02463279049157968,,,,,,,,,
CD70,,0.0035074029241411752,,,-0.03798558058792872,,,,-0.003676829475678582,,0.01924827601333475,-0.07900698535515706,,-0.05120345240004079,-0.04161074892210217,,0.0013034798001840895,0.10555781298632838
HP,-0.032665677343648065,0.018381269094117875,,0.21430078501082067,-0.0691463283372358,-0.005160764827103913,,0.11532427409656482,0.08187603287044504,0.0525706024779583,,-0.046150451952274046,-0.015037596767396398,-0.11992637001334457,-0.018569335206353493,-0.01222139541104503,0.0306065998342918,0.014361090470568983
CXCL2,0.06938596230137926,0.10961590099296542,0.050203812560783344,-0.06633809454275862,0.030378214511241945,-0.007410027875638821,0.14843804141855368,0.040658103763223215,0.04832957882013303,-0.019449299209509347,0.017492236601935347,-0.034805409344211446,,-0.09325262117875799,-0.11455270709605576,0.024891283407765235,-0.004772093039691721,0.05128505765599835
NPPB,,-0.016232542246359595,,-0.22402153729555904,-0.05245078895198755,,,,-0.021125680657175572,,,,,0.01745513171187699,-0.008037481490427665,,0.09039685760348126,-0.015070810601333553
CCK,0.0987673447675819,0.2639436387683727,-0.0006035697837596045,0.1060137679362131,0.07792250939258404,0.06180407561468021,-0.22396197583945432,-0.2822396699354681,0.03812699695162041,-0.14989504051985128,,,-0.05277559400795764,0.15137713864366986,0.16102131255375027,0.010661899330303233,0.004509952453300919,-0.019550909796742
SEMA6A,0.05752573368531373,0.05063899771891709,0.021812408411048905,0.21420356275027636,0.010014483585273829,-0.003012911751663536,0.12036887183792216,0.18238956061121875,-0.00405162825296439,0.014052887593967202,-0.001538837150165408,-0.05008062105200098,0.07394930893131957,0.1285402311755415,0.04808909490815514,-0.023876596484676025,0.012721347989495663,-0.01741594250816679
IRAK4,0.051220642630322936,0.03835130935889026,-0.004517470164886014,0.09505284695708449,0.0161012631739132,0.06387986413251666,0.10935304954289446,0.22971777407407012,0.026377932851730245,0.06795293545420229,0.0733100676113661,-0.04807176558539783,0.049678969469381405,0.07009629756387706,0.0880246434073903,-0.01078658436839701,0.014390134863271212,-0.006894471958901186
GSTP1,0.05357337105626376,0.13558037252341595,-0.010244588635746378,0.13646502216548945,0.0697222313679593,0.019420041717487797,0.13893875060758493,0.3100593360859486,0.06972403661165329,0.023310690656266713,0.04672739347164059,0.026377488071831063,-0.02329751835543231,0.09585055819156757,0.15390691725813452,-0.04226165998511868,-0.014925358118643428,-0.05097460005074439
VCAM1,0.00405982963958668,0.038580205441929166,0.07907367414874074,0.07248628265507867,0.009629683076102942,0.05322626920276138,0.05649402356217033,0.29443444058767426,0.14210238045362228,0.03846586467314925,-0.05220819529401891,0.07295498689423603,0.1445141123019366,-0.0020263255217560397,-0.01917479347416689,0.011198444226092319,-0.07030622345052245,0.03562350410559158
NXPH3,0.031793347639366205,0.05755621930684134,0.052419660433547226,0.04730933167570822,0.023825073122575296,0.01063460810447286,0.1148560175498497,0.10006598021073713,0.08081365547690109,0.09706094204739929,0.06710256831155839,0.10647532094761894,0.14779653079272523,0.05865315892879131,0.0945081138724286,0.11089018416292207,0.018886615021519726,0.04568312180437111
MTMR4,0.08517371977323078,0.046663319442261264,0.0175243456822483,0.1262984381631084,0.03946749333245732,0.008098530556447008,0.06496213988843767,0.09590955018066256,0.011951460643634578,-0.021572128350579454,0.029930708524861956,-0.05807746577381609,0.05552866401962503,-0.0015826646779402832,0.09178860032648195,0.07461402239293041,-0.06957444985074925,0.008659733601526949
LAMC2,,0.0007953739437510767,,,-0.00026558253821608617,,0.01605290979771199,,-0.021773256590205174,,-0.013239332740793308,-0.059553763804283795,,-0.010657464452594297,0.003949528589483596,0.11029582989981299,-0.014733999065294764,-0.012955043651683523
IL10,0.006575255338490598,0.010094859489962424,-0.02177748424210336,0.025461534769438472,0.049804213182017866,0.013036711992517373,,0.03119347143671492,0.09359170375138919,,0.0021944690672158276,-0.025547032516412944,-0.013500862511047795,0.07743889517378331,0.012327122204470398,0.008197628998857015,-0.016242503168671797,-0.006719554728822299
SEMA4D,-0.03888946489148282,0.024744926611479572,-0.003369417969787019,0.2094877698124764,-0.0031689848248383392,0.04005435418311857,0.050656846772107814,-0.12516196694975143,0.02689311871989709,0.006670320307598504,0.015549307419847636,0.050068129323110694,-0.018843770132323127,0.2107705210110698,0.18163601196445317,-0.05433718575103483,0.0584479179449465,0.05464924579234825
TRH,-0.026619113079213566,-0.10937862822286923,,0.05385345454354836,-0.023976343454073065,-0.035211756076751304,0.1009827566892589,0.09624191074027683,0.08575373693001972,,,,,0.04982287116100709,0.04345307849036321,0.013808450792430368,-0.004451098929121581,-0.01688031854426796
SEMA6D,0.04252103100795598,0.10628734817669701,-0.07553366893336078,0.24866853161807845,0.009097095031027728,-0.006211390294001104,0.13378223071379147,0.17696899354366682,-0.030516828322670008,0.008234060461076375,-0.025336408871105876,0.009105521745150611,0.037081055136736187,-0.000952449968033312,0.05835291692749074,0.06610089596163449,0.038031837053728895,-0.029862566903866086
CEL,,,,0.0691272101722478,,0.014843082970090632,,,,,,0.002162011770650618,-0.01298482208102163,0.023697800181788603,0.05039947482002326,0.025131692232814407,0.04190494918795345,0.00325682309934259
PDCD1LG2,0.011712737904084768,-0.00966174303356776,0.00294423596802157,-0.027136679011963333,0.006721186704930259,0.03884775999009867,-0.024923022567448057,0.17460761690196866,0.056929673404337446,0.02558025232985861,0.03840947999800362,-0.02002353235027524,-0.03320178772752756,-0.0008883278414454442,0.0023771014837182646,-0.005762528748999903,0.08668453672961283,0.0016848896765825137
SPINT1,0.004769076848270802,0.01068157449204727,0.00612651829179857,0.04091104821725684,-0.014363252142689027,0.049435160433221936,-0.032236416036970354,0.10727148163114693,0.029277507901467964,-0.008136397737798385,-0.0685599499083198,0.001976963939302768,0.0953413578782682,0.06458982820429876,0.09050378047207198,-0.0395902829302434,-0.008531755110273946,0.004179466873414623
CTHRC1,0.07832718462638538,-0.018955532932532295,-0.00813322278187812,0.07762226658442287,-0.012497875705138361,-0.004994320876641224,0.22530875337339257,0.2284481766329912,-0.04423514573251152,0.056954098059613836,-0.06767557272538507,-0.012158539659162453,0.010046165730362157,0.12336527798524743,-0.03999791032112429,0.04451453544171347,0.04804230459555881,0.056566351318196345
PODXL,0.008075015183557322,0.03747990390975458,0.016915513644159465,0.21083049527636588,-0.045702552432170515,0.05076625938606852,0.16319286055224816,0.23836112020350572,-0.05205681770961895,0.06897744076040256,-0.01140182984889112,0.04666400563501445,0.03400624291065639,-0.07776587992696855,-0.05599848463074664,0.09241463638943342,0.019020767867299733,0.057413816944832566
JAM3,0.019957674229673587,-0.033851361128025406,0.04334359600257428,0.13861580366363616,0.019735183862134784,0.060242678180349785,0.09320749528343375,0.20018578095158363,-0.10498139418883223,0.06730094356851872,0.027233179676928985,0.03602088044118271,-0.03555167172923296,-0.11002842846402966,-0.11189858216026571,-0.029890156522418537,-0.04675967411714677,0.041613875938086
TGFB2,-0.027425114289538345,-0.0867402486496277,-0.02060896692225652,0.09220522548061096,-0.02495893308045752,0.08320773790760487,0.006394990056887796,0.24979190238322305,0.007481104353623517,0.03664352890011647,0.10303185721464678,-0.00041918230858996097,0.027416984880554184,-0.003914823624059969,0.11349244629894466,0.0546512103901417,-0.027627793316061196,-0.05200574283605354
COL18A1,0.01881571271958416,-0.00417481379721061,-0.026605058017094084,0.37122983422799183,-0.040378528910412936,0.08085347031702754,0.17760108520807386,0.26256543341135563,-0.170683242892898,0.03978291388398426,0.10011972213402193,0.0385036403307315,0.025737566706861767,-0.00025632386361370304,-0.1717363211131509,0.012923890955254978,-0.02313287354291931,0.06319022334398335
NODAL,0.009733126356858716,-0.033653344041492936,-0.0146443140080129,,0.12716916848530835,0.025568371725944374,0.07807995056636106,0.19091993636764634,,,,0.03654889344790674,0.07864069718650266,0.13225989934899743,0.00427463569247209,0.16736926348131875,-0.016849433001518345,-0.023102251015346447
INHBB,0.05346110911929904,0.055385019845216876,0.002169134218874286,0.04286828279306397,-0.007622614384724922,0.04325685236815256,0.001710247282337225,0.1192510923056467,0.042713617444736146,-0.010742068302095035,-0.0010446961708811468,0.026286941869137458,0.06058043999108068,-0.06917828026203875,-0.08371428663526968,-0.008381458977326233,-0.039642954179507056,0.018765096987938025
LCN1,,0.002188781244191714,,,,,,-0.03363716542458467,,,,,,-0.0005283828050229482,-0.010109170501960864,,,-0.017070296888616054
ARF4,0.02360721963417953,-0.02106213116829767,-0.010703869696497906,-0.2048505229865,-0.017105443949571527,0.011473775386425276,0.12039137731573367,0.21103619765977708,-0.010679726202511572,0.014979617775036876,0.04479720855848355,0.0089188174786432,-0.0398763926317952,0.18741107741203272,0.16991199943523183,0.032693808034027654,0.045888893636215,0.014159388964981373
CXCL14,-0.02808195804474463,-0.04171244250421671,0.0018042957467747495,0.02226563374357681,-0.060585892654647734,-0.02011961268282558,-0.15963928104470998,-0.10209853336514181,-0.04660976733000331,-0.03799072453060146,0.02695597378569761,0.061276113003112656,0.0034942798821558214,-0.20351131555242416,-0.15050262314718044,0.06300358930402365,0.021264640957756455,-0.020482167112583844
LIF,-0.05367684303596725,-0.1261774261320874,-0.018531539306233913,-0.09011542869451555,-0.0025465936336323976,-0.05846279761491555,0.0066232749224142025,0.06928195701819595,-0.0958782432817932,-0.025255161720330856,-0.0026295388048260806,-0.06565058891280252,-0.03317120367985731,-0.1891092987086566,-0.10991225272599524,0.07756253068274505,-0.05999238976385737,-0.03210249889941867
IL17B,,,,-0.08172323015901818,,,,0.13174589337985956,,,-0.045178356277697444,-0.08191312209223946,,0.03976221365596195,0.03148375731466649,,0.10124931940229692,0.02753464287832685
MMP1,,0.03122220986423373,,-0.20053311358590828,,-0.03521174839540828,,,,,-0.07389477808350722,,,-0.07504885959104182,-0.03959393286370313,,-0.015179423230490385,0.09285679085754768
MATN1,,0.009278104775459964,,-0.0339799140524998,,,-0.006444581363050657,-0.04334798897977109,-0.02344691433121242,,-0.01880209246959633,0.08792883511882259,,0.0013451312229719086,-0.030127970841705265,0.03757580442541569,-0.004075162216777067,-0.020530074459833025
ADAM28,-0.02610470667185012,-0.040486375588786046,-0.023983589828759436,-0.038057296939626846,0.04568294296113356,-0.005453124485130832,0.08148944778273395,0.10252301249064015,0.06581471804810998,0.008505450725878376,0.03788560209546978,-0.000774160435212516,0.016707952089368663,-0.01709565859339375,0.03377929576139866,0.00799633338312534,-0.05662723124733025,0.010722142654147532
TCN2,0.0033338203349574254,0.034985341289296715,-0.01328145828993631,-0.00018640044184090935,-0.03678564387481782,0.026436058223459347,0.033666288176722396,0.2635197384633526,0.0011151661632240386,0.010418055307041915,0.04574253434332803,0.0976746846272081,0.09724206812459452,0.1192130365101676,0.026109169725974987,0.0011132977760727697,0.03897587204569369,-0.015126681877362685
THPO,,0.033186449377041634,,,0.005717887291247511,,-0.006864386863625404,0.0734311578951337,-0.010728272357298424,-0.021887663189375246,,0.09137845382392305,-0.03895369946071222,,,,-0.01874034763054417,-0.022224510903953564
CUBN,0.027944657420797468,-0.027135441065736614,-0.025124162186001504,-0.0009784702298217087,-0.059480580208070725,0.006085144400291185,0.05409077670927692,0.1250585324166594,0.02644486841157745,-0.0129395009939258,0.013474190562511324,-0.009347025244488364,0.020733497922140756,0.02947397731756666,0.10723078598616004,-0.0009345738409425697,-0.01197590131555543,0.08303134791109079
TIMP3,-0.008385630212272639,0.010505336137137252,0.0015233806768323237,-0.02814115170700103,0.04274939093739734,0.019915315411476883,0.07147556152734462,0.15556865957667917,0.09510728364861049,0.0033007141018829454,0.008805787682228018,0.04494197087209011,0.03402121427893644,0.11617105863926241,-0.07212107090154087,0.022994887012320945,0.01174287172127818,0.02755193238022336
PIGF,0.013482679796867778,0.09445463451629396,0.0342780190185252,0.09402696109198258,0.07629735680615604,0.0193695504978216,0.11043845560602965,0.20327275535591147,0.021626070316663405,0.006155143150048686,0.07277001160138662,0.14297099768012772,0.04830732510069962,0.1277996807029622,0.1577278495947536,0.08327982778207506,-0.01672548866948175,0.024798343577103914
CRH,,0.07015094166057141,-0.00015864472412033186,,0.04398101321294002,-0.015100533162340928,-0.025579737273820253,-0.0849424967699488,0.023276649327428924,0.03297303764962584,,,,0.04247021153591568,0.00891361687408699,-0.02843512554990669,0.005133032402821127,-0.008867126213457812
BDNF,,-0.026320510901868596,0.06241209149809054,0.05743547954090894,-0.010454420130802833,-0.0477320288123511,-0.11236570268055351,-0.17588602264346256,-0.0523845140920177,-0.033288140948246114,-0.015414664129608121,,,-0.02635279932125064,0.007334941668672506,-0.009958956939092444,0.005176304673154828,-0.00037068395164750783
CCL5,0.010770444036385348,0.10021960447783299,-0.025575842007116833,,-0.03704303979434319,0.04680771310531089,0.011371777640294541,0.1743565505886291,0.008449548534359292,0.06725501236462446,0.045716996294710016,0.04421459149810596,-0.01039337611408148,-0.056497850303743366,-0.049771495226429416,-0.005543339990690094,-0.038195551626526464,0.06859772793841187
GAD1,0.036196466758973304,0.10030391186641657,0.009188662755666224,0.09603999041597168,0.04211799273568256,0.02582097040097158,-0.16598114427062244,-0.17129345430217546,0.04524101188916801,-0.06645799669481027,-0.00036157439847828615,-0.06871012328146282,0.06997409506108727,0.0444394524909066,0.1431093973382213,0.01908205602808075,-0.033679238863658284,0.010291653002066713
COL14A1,0.005156733385367561,-0.02362593712713567,0.004973909242656395,0.142286322693478,0.04814812449623648,0.01877102742471068,0.09413578798964786,0.07192169400548079,0.018403362244240197,-0.011367307192390512,0.02327140318982482,-0.00100417441168755,-0.027323968611156983,-0.05323782547884897,-0.045733521488131305,-0.012440244070281343,-0.01942990163715579,0.0659454857113549
HLA-A,0.04894752935466536,-0.09221725525090116,-0.025502593547332163,0.10618197718900846,-0.057394531373183934,-0.03053680067957497,0.1017176553607791,0.3503081064315276,0.09987324045375122,0.026886981674977505,0.048386608846849165,-0.029135590747564756,-0.09720808118205182,-0.31179241099327326,-0.278392985552889,0.032268267961393926,-0.0299634267946823,0.0982915773392345
CD5L,-0.02364150158650017,0.013914234509538949,-0.007891806035381173,,,,,,,,,,0.12341193346568399,,,,,
FGF18,,-0.03781002009118936,,-0.04284025573518442,0.024721016876232876,-0.015023243492875656,0.005797540104912007,,0.07144062180173194,,-0.01952279727732272,,,-0.014334988779583677,0.024956466634563027,,0.0014216705591598797,-0.01688031989856267
ADM,0.01705047934463595,-0.191982379043931,0.09375122627549601,-0.27977663359122024,-0.07441640474553807,-0.08920710788436777,0.05708877770658078,0.16825191101035042,-0.16084497156194888,0.0632801859356134,-0.07902041405716709,-0.03530567715252778,-0.04646953803928554,-0.23354268305476805,-0.22979345640209983,-0.007105118180286547,-0.01724179707772052,-0.048617040875593126
CCL15,,0.04331510428032439,,,,,,,,-0.00014942721246669142,,,,,,,,0.17978545058428586
GNAI2,-0.04863178963403024,-0.023759268066644364,0.06567603883827547,0.003407821173809385,-0.010563710204891715,0.05526202896831129,0.14088737385099365,0.2699449427654182,0.022092328597464607,0.03493100748176225,0.05262019449335885,0.023183590189065947,0.10889951578125406,0.007908397314265417,-0.033778044268197756,-0.05486416260701092,-0.01332635913848511,0.06938556647458777
HDC,,,,,,,,0.2315585935911788,,0.014107409447865744,,-0.02294792578437344,,,,,,-0.00045941899341074257
COL11A1,0.049585231849543436,-0.015610828672941553,0.025273245965832258,0.17253935765528175,-0.022956282099283343,0.03523216546562535,0.22137020255203316,-0.06528264851028501,0.00590807028374894,0.03320161567221998,-0.0715395261382514,,-0.016467482964270218,-0.00013565358800166828,-0.04311786512813316,0.009386553097915125,-0.025138508808827256,0.09473882772145253
NUCB2,0.02826660004794719,-0.06080921695670574,0.01765797126894166,-0.0704035327995698,-0.0012268408703247009,-0.016251169010960614,0.010287355316639853,0.15092463642794585,-0.02277454718758296,-0.03538965919892257,0.03259867420017499,-0.004175141418851566,0.032745531478447956,-0.12879666003960522,-0.08819775676296558,0.02910507378376482,0.08833358624851609,0.02026479461325874
CXCL1,,0.07859490058273179,0.013582121576523117,-0.012825755016602079,0.015420777572512567,-0.06036033827964659,,0.016590522998962652,-0.00690668664587664,0.0750720186568763,0.009081811564580653,-0.05198286915356048,,-0.14473515950109156,-0.09422646663865353,-0.04449485681178935,-0.04329964126878579,0.02378561909448627
VCAN,0.029942190471299843,-0.0344317790248436,0.02739841941950114,0.2862895866299753,0.01700939887827568,0.051389167262608657,0.2163851058109224,0.17453498550636187,0.03516345713288635,0.03356537376914995,0.07409903097963072,0.03277492953709217,0.09712008997881834,0.23318457940359763,0.1937491663613917,-0.02102534749757756,-0.038148760115439266,0.03636594696870877
MMP7,,-0.1278871848641716,,,-0.022114594660855365,,-0.007820250314051164,0.07425807193628377,0.03393272002483601,0.01927673256842552,-0.03870229432732092,,,-0.17105239224926683,-0.1498691660789218,,-0.017859407073073548,0.052262020319995064
PTPN6,0.06339231357455592,-0.0678191255677538,0.041260573448674315,0.12191060105629282,-0.009740063881652876,0.06206651513093859,0.09763678965487312,0.2597782392191713,0.013732434270916642,-0.03703875427027423,-0.02055898103926602,0.10231216856962246,-0.06260543778621552,0.04291400454541683,0.049046283970387995,-0.031041102257549903,0.07224483406761409,-0.02596183610151641
PTGS2,-0.00403338621376782,-0.0467702493670499,-0.017595331803321065,-0.1921287282144812,-0.0012759653970334625,-0.014997745118414074,0.042959546149932644,-0.20930825493171343,-0.03335926200342753,-0.020256044721212778,-0.02335886294794485,0.050115422188558495,-0.06828372675197408,-0.15676409130366173,-0.14924261488728638,0.018864720957350093,-0.04895673797004214,-0.03920162827201135
XCL1,0.07438902620133774,0.023080878468927802,,,-0.02550253787944654,-0.025946372655506922,,,0.04652299508009284,,-0.013309213586605449,,,,,,,
CD58,0.02271490228727497,0.023563055862013432,0.027649448805822534,0.11358182600520692,0.04345636325811145,0.02953914245096535,0.0948254007115422,0.2602962757039552,-0.0035814729332642055,0.019038601521853,0.023298329662835283,-0.05691283869568557,0.0899307603272064,0.04393293205159905,0.09063283482146983,0.007080540884604334,-0.0014465578776751736,0.03581455765902914
TNFSF14,-0.0008748907365528396,0.0020105624615143767,-0.004272082760752383,0.10232386700683975,0.03486875671581075,-0.02504175675828959,,0.053330078183239225,0.03540108167639616,0.01406902451027826,,,0.023890218603127518,-0.010893889510141414,-0.04363762878149297,-0.015464536117586707,-0.004114005909641216,0.04274450694705211
CNTN4,,-0.007532631769152443,0.0036990425281206493,0.002903731252169214,-0.01898216584866475,0.0019615141899884765,-0.051775945126252734,-0.13679354051175277,0.0646911034372944,-0.009383233265534953,,,0.04536917140038129,0.03747287199649795,0.1651669814799158,0.006441193915840479,0.005247770765842197,-0.02491138113159146
NTF4,,,,,0.012846753376251149,,,,,,,,,,,,,
INSL3,,-0.03349395596886699,,,-0.023439057015854782,,,,0.0498969103222945,,,,,0.04451919266442458,0.0006717655521002338,,0.06228167942578961,-0.020045891684739515
BTLA,,,,,0.036993279742707406,-0.0018187201202111364,,,,0.02926325398732585,,,0.17879573956748113,,,,,0.0017118234792000775
MFNG,-0.008793415723494126,0.0441078253295662,-0.026733743253459886,0.1293654716488341,0.02693730147427015,0.036009693430897265,0.13714167798066546,0.2565318685887369,0.0875301590828466,0.031683618678039,0.0314732517075511,0.07115275525457146,0.010580938834048731,0.04370174121422036,0.041647088379975904,-0.08991201101561995,-0.0007623615856431643,-0.009729478490150186
ICAM1,-0.03674087126962534,-0.06908851527062178,0.017698415315261663,-0.10348086951701901,-0.006899176895387188,-0.08807057168424692,-0.0039570924729454724,0.24439396625710208,0.009629520759630302,-0.013018589075013857,-0.031370733187343444,-0.07105515515212293,0.08326786105063685,-0.0945687436274164,-0.08752163297819048,0.027274296876972668,-0.0286843918130277,-0.03427344593849706
PROS1,-0.018065633173560445,-0.08430946507087662,-0.01821577502038535,0.0834861457710005,-0.045042255436073736,-0.0026780392747273005,0.18869867663857748,0.22427669535097647,-0.015355936685710374,0.005723807167097371,0.009567316808242474,-0.0734123878972838,0.023311437155968784,-0.0950309508241403,-0.0938217309769279,-0.0240084875296202,0.022659062039967454,-0.018686960583328124
CLCF1,0.020337376730539074,-0.09476452998091282,0.021876083537221442,0.028782302085539797,-0.029644678293841348,-0.049656718810924656,0.15104976202205142,-0.007578104722281776,-0.03519231257604938,-0.005200991025493527,0.06409678646638477,-0.08622089247181171,-0.010604716316954987,-0.04720508137518769,0.022110483558625226,0.0010026261970934756,-0.02192315484299303,-0.056639093103258605
PSAP,-0.12322994972025178,-0.1349820062548316,-0.0005401369922959701,0.15223585856934613,-0.05595842461058271,-0.012582429582407278,-0.15160747469805724,-0.16787716025041985,0.15406617040525528,0.04883110555159906,-0.021921624794108117,0.05553370614349973,-0.10007279552350018,-0.22223241573327124,-0.23027173994050545,0.07653850917560857,0.0361106761511528,-0.06263695667099713
EFEMP1,-0.125181345608534,-0.18599889135073874,-0.05449700246897178,0.182114827286528,-0.016348463519135513,0.026726822227889645,0.1436775224631108,0.1958852743943521,0.15088246961617094,0.07601957072004059,0.013421364976716778,0.02315857156854964,-0.026581730364380555,-0.13183632822376257,-0.07724160360538962,0.04554910748963614,-0.009171761806025048,-0.07956038084662308
C1QTNF1,0.05863592402238802,-0.13572287838730784,0.01297688747296811,-0.07790399071998157,0.0007284817897030137,0.05727124228826035,0.04240822517768624,0.22138689683469714,-0.02440476945391433,0.03744063818840086,-0.03357048290061087,0.055265947680473805,-0.022228343993550163,-0.24376191774772815,-0.1954883253844449,0.07295113634317613,-0.038878617031980846,0.003361577953882468
ALB,-0.04027437216173395,0.015556702481701516,0.019699617944191797,,0.0565497837722831,0.012990843230173955,0.08219276455338247,-0.050515955629539956,0.00028218598938939345,-0.006636832406089402,0.07103600207150934,-0.002623610327832895,0.07022125048694555,0.03972797709865726,0.05361105358121548,0.009975685730480226,-0.03669067100496878,-0.02266710327920201
CCL13,,,,,,,,,,,-0.033922122167479155,,,-0.03802113268112274,,,-0.02458591496828914,
EFNA3,0.043610720110655726,0.02289280516652867,-0.026432311801046614,0.04486975901981651,-0.07180561549911502,-0.009834436542699877,-0.08318598534887836,-0.191977531566721,0.027565332917625127,-0.023142154708937573,-0.00979756854910365,0.03270133006827574,-0.020474547137950244,0.015280843651515089,0.07742130809919905,-0.040291232427736204,-0.07034102584246835,-0.021333081651525927
DRAXIN,0.005780725922258184,0.07357770435677735,0.0513694583663128,-0.07670912263476011,-0.024824140750566995,-0.039612513848558066,0.11562025327007454,0.15297656466088533,-0.06889831661600211,-0.02938119462179076,0.03495169731575545,0.05686269726931786,0.09569521138919236,-0.18918658734954336,-0.12994378226932465,0.07276255553318885,-0.07349002768150652,0.02829532806439315
RAET1L,,0.030809485810615652,,,,,,,,-0.024988568159391406,,,,,0.04111873349024692,,0.07518059085048293,
NPTX2,0.05259256768405147,0.11359581575935596,0.01762875642050908,0.1596505542132488,-0.025102565140408668,0.006702893411374582,-0.19760673503338716,-0.3120230406094602,0.1093635383235627,-0.024880302683314592,-0.009996178135997562,,0.046380443888489116,-0.0474206228954315,-0.009873729760020012,0.011178135677887103,0.02562690122683456,0.09814385978775382
FGF11,0.05978418355235078,-0.03128444152596559,-0.007012267304416793,-0.05827800169344455,0.005442360076187036,-0.0553410010003634,0.14129038165114732,0.28274231887571166,-0.060884132635644295,0.000857262520725409,-0.014576075104432748,0.03891612655215014,0.06963133244934308,-0.06497012917761541,-0.04176907127755341,0.06375015888962009,-0.03534705670432176,-0.009128833031320343
CD59,-0.058939085574624135,0.020410942568727664,0.029960149295906166,0.12108439275537457,0.040571028819066865,-0.005337285344683137,-0.09280687506009383,-0.1379747892487272,0.09466761570586989,0.011312166507462368,0.002852225437190889,-0.02701350428008762,0.02543451621769977,-0.1076116544700469,-0.12022987154376598,0.10150963050196335,0.07836147900116291,0.05227849392073141
COL9A2,0.020781922850677384,0.07586120108860195,0.046429083797241893,0.19606365931540432,0.022707680882727788,0.09855247645086405,0.10749793769335458,0.05774209104566796,0.052096339905506724,0.028331780613611898,0.064876606313635,0.06280373738304951,0.0828976751700861,0.15024820070307318,0.23528964639975206,0.0029162060889609777,0.045305587473062854,-0.05022201142776026
DLL3,-0.04354924555091195,0.28112064362416816,0.028891940759588827,0.24905774440776127,0.07006043446798257,0.04094614317040015,0.21499476975823006,0.13630488952083292,0.10498931325681456,-0.03764644573147573,0.0817242601327907,-0.011627222994876342,0.14788571728087174,0.30461000249924447,0.291071130741468,0.03810802947600763,0.017127366483353085,0.005922834931846464
FGF5,,,,,,,,-0.053854294693504036,,,0.02971202698720753,,,,,,,-0.04145708131669057
LIN7C,0.02825962796786913,0.013664217407208575,0.03353244437856195,0.14379507260981642,0.014590331145162793,-0.017703644439422028,0.01742003749687011,0.10449413006218151,-0.014269346013920004,0.05219702216923952,0.06065018883374755,-0.039200901783374494,0.031351150797876065,0.09104652196023867,0.01503511134151451,-0.05012901393567947,-0.002997128533715973,0.030233156158576725
GDF7,0.01143293953956454,-0.0074647525646520775,0.0012562110658415411,,-0.026470893925097015,,-0.025719794323327418,0.08674785317820496,0.05630567516629532,-0.033649336870482334,,,0.1028370262874194,,-0.022790512272523645,-0.026700130001371003,-0.017818289104928314,0.034463921084959465
PSPN,-0.023820489285737902,-0.003960205646462132,0.013096834651708262,0.026753277303787796,0.03586549910312151,0.046846011373185704,0.025715191956646958,0.04392605645831549,-0.0032651379755902843,0.010540995629507556,0.008105401994365068,0.07448222398417849,0.014432061570800925,0.05083190263814784,0.0551899314494345,-0.015123074311146543,0.00011709695848641348,-0.028100461545876632
ANGPT1,-0.0007995274116341175,-0.02924937109794346,-0.039924334974567974,0.03059818719892222,-0.008707238317996744,0.04876896419919285,-0.023628260966150966,0.29288318041063166,0.06457303182090735,-0.017290576197573262,0.007664808067540228,0.030364448737475465,0.023274651049851863,-0.015265440033586583,0.14459954222566598,0.08613000810366636,-0.0025820015287239396,0.001102408337652413
PNOC,-0.00042287632458992886,0.1073209759216299,-0.017571988060988773,0.15044653173595562,0.021269239514393124,0.007804759896395652,-0.10571548690385547,-0.1896261256874933,0.09230998701500505,-0.06884474618901794,-0.017798493997605126,,,,-0.03724920856965113,,0.08476105053676268,0.05791724406977784
L1CAM,0.01855443439370555,0.10587170608399578,-0.007826470132999063,0.09400850303077787,0.031308141553447716,-0.04738305186675789,-0.012346802308357318,-0.14897692392909684,-0.01601129043883071,-0.020474013749143493,-0.0437205689430661,0.10886325479922249,0.05069308454878965,-0.16143823883524433,-0.20899337228762557,0.07497977541395807,-0.044393939933514114,0.05841135838076204
APOA1,0.09753633882429051,0.09202371797985605,-0.010421126218363351,0.0946606239300633,-0.02871141275497772,-0.026871577726817194,0.10131734989376273,0.12586044604427687,-0.01155095246489178,-0.0017015941831473994,-0.010635145278454964,0.0019127016171050057,0.06623263987236229,-0.028531670445409076,0.08121716704475465,0.011217775231259705,-0.04215855803813598,0.07389179071525694
PSEN1,-0.052945231900434674,0.01792788713545804,0.03061975706043073,0.0171080908626555,-0.0313680091608961,-0.017211312822908977,0.0392451305221919,0.017414539316853793,0.0035784583201574254,0.05978290909133127,0.026871660214539607,-0.015495318541844353,-0.059456121881239485,-0.02907210943949735,0.041416266702197994,-0.021183726733008768,0.04548910388886895,0.023953940862584254
CALM2,0.07563792205636906,0.2049652780662735,-0.03601915311865285,0.15403776031801944,0.02408907607241884,0.07082159891573879,-0.19039701745291857,-0.3142865675840753,0.06326101088919825,-0.05270454461309156,0.10750037764429614,0.09856452536818333,0.030484974545469657,0.156383529695745,0.10024173569016023,0.026805315054731122,0.019856631465019876,-0.05802176489492715
CLEC2B,-0.02780911064482396,-0.13858729801509448,-0.003377095292099318,-0.28836865115155835,0.011195417363162723,-0.04928623435686091,-0.0024233040444416702,0.2618487170647092,-0.02026325986627992,0.024807512251391443,0.010074017340332244,0.0004850024257504743,-0.002149315423715494,-0.05480091403263509,-0.0759448351056596,0.06312423087803075,-0.010831551085929137,0.02972290640451301
NTNG1,0.06489670277163459,0.061527698709776035,-0.008359401021813479,,0.0737905859427865,0.024745264251268537,0.04704843078249044,0.07793741636934734,-0.004201147494516735,0.018120593426824583,-0.02916659268845236,-0.05534841730576247,-0.014548567277480174,0.029777123374779196,0.12803909481223202,0.013813626640378728,0.020214621982784838,0.006827056955497391
LRIG1,0.023422412931171675,0.16380487909148012,0.014243326410972538,0.2476124575364051,-0.018368920377695816,0.10571832287980798,0.080959815741221,0.14610932687302086,-0.08922825515390648,0.04994991385754491,-0.017229867829482905,0.04034261229293982,0.09408297529032814,0.25588224177993313,0.20747558712315006,-0.015643385723160434,0.11395111381470673,-0.05371518430665804
CPAMD8,-0.02254313138432006,0.025313012561053276,,,0.037963992514424054,-0.03218153391949152,-0.03461635138959916,-0.008579912444550187,0.028317917126773035,-0.05138130965582099,,0.060943793453601014,0.0703374139555104,,0.04614900964404011,0.03827745177636275,,0.056677228923419275
GHRL,-0.02019044477156793,-0.05330710695271995,0.007756249335722178,,0.10171830014434009,0.001862605538352785,0.04812340045792618,-0.0508317496509215,0.0585992505110848,0.026671109232147997,,0.11949647698836398,0.028883461930786995,,,-0.016921158809692416,-0.019273939110790058,0.046785198628735265
NPY,-0.04251356799746925,0.056737578702253,-0.001766826474942104,0.040145993779412796,0.018030900171530827,0.007263129955861489,-0.11043140988403179,-0.15566940353136188,0.06843108890281682,0.04883656817477153,,,0.025761888259174685,-0.17653694241096535,-0.14191544012478802,0.02344295684667196,-0.022993259409248838,0.1263588146152451
MMP2,0.031348093778462545,0.11040918477304561,-0.006688563489751224,0.2477389142710769,0.039716064737289336,0.07308344269858945,0.14968921215440203,0.26365552360066674,0.018317763663058564,-0.02460001728767111,-0.09326256291064124,-0.03694087371923856,0.10026238773756938,-0.02112953108795631,0.08990016083925104,0.007940225956026092,0.02439539162134018,0.07846732894987636
LHB,,,,,0.08544514073668003,,,,,,,,,,,,,
PPY,,-0.008050076957893,,,0.03583362412135306,,,,-0.03563996428415561,,-0.016462813271649265,,,-0.12685690451428808,-0.13204741736029726,,0.010157169100896982,-0.02860700414445505
ALKAL2,0.01739934960334377,0.007094506535904818,-0.013864257350328507,,-0.01095178712541212,,0.07003514903714607,0.08079212872745284,0.032988298461669806,-0.008395706672699586,-0.001494900606502634,,0.029742788365751404,-0.06074555662259347,0.06642808129619035,0.011292021605570324,-0.031500763817767244,0.0312431611140588
CSF1,0.06945956376316402,-0.11030340787460348,-0.05551927015914098,0.15032559453939792,0.026229435722817964,0.0004565821948971547,0.11499523235378005,0.15235072607788058,0.0112857536033177,-0.009687846441575648,0.0472868245669411,-0.01163089744871177,0.05270103450755147,-0.0735365223757516,-0.11421219476976761,0.007195757356039367,-0.005874698899423352,-0.0855690789923331
SEMA4C,0.05350177251455867,0.05694794487091328,-0.013838516434928099,0.12573185701623163,-0.02010302179271549,0.0553072778265595,0.14534184850036552,0.04060573110468731,0.02493207364775765,0.009161329306746019,-0.006687994363801861,-0.036581924635911665,0.08582295529062738,0.04411131110325858,0.074413967315244,0.04769646627326306,-0.025450742105432838,0.05273141822062966
BMP8A,,,,,,,,,,,,,,,,,,-0.017992266841487522
ICAM2,0.0609788767679294,0.061586236771476524,-0.05119003229134543,0.11600901375853104,-0.007580728477094467,0.010948418257324696,-0.030989563634107996,0.1749445849242312,0.03877270176957968,0.07627628810350746,0.00961884573189134,0.09055912004791188,0.1063326978923324,0.1934621889158581,0.017366302161569216,-0.01882154047149584,0.034214537614806965,0.034817376108273373
SYTL3,0.010266604606851568,-0.036894647351107,0.004438755566877042,-0.050319653744719174,-0.018234216068818972,0.05867093506325626,0.05708567554038384,0.12648415636644117,0.012551461965249054,0.011923184852404251,-0.02203222854940001,0.03929651178346394,-0.04147709382492211,0.040012451134733944,0.001930436564107465,-0.002243883198249824,0.041340376426387854,0.035268132861954314
IL1A,0.0040281453322103065,-0.032038153798004135,-0.027664244199756282,-0.12815340056347876,0.0073369050469973785,-0.025103833148500784,0.02763328058617299,0.16952443094831415,0.028318998508938247,0.05463909100384744,,-0.06728964303340858,-0.03319876404805582,-0.012232645111962695,-0.05006268432769095,0.052537649152331056,-0.00018043451282790136,0.00655129231703268
HLA-G,,-0.047305628893582995,,,0.04293397760075313,,-0.02320454665963355,,,,,-0.021051772954684224,,-0.06192550044633364,-0.005123903927446151,,-0.008944022028378316,
PGF,0.12976067962173807,0.046853460403955154,0.005339203465511721,-0.09342301234812508,0.018783833657016132,0.004413361855859005,0.10117999354460337,0.34227218278364097,0.03071474616899805,0.019942776310539787,0.12522087863846745,0.06608160486828583,0.061722559885779626,0.1167027938340506,0.14250001739841478,0.04108025060058422,0.02738179737247326,0.08252412872299664
LGALS8,0.0571837744627855,-0.02121326194961168,0.0024196285443632897,0.07690229002577578,0.032219440367962406,-0.010921152623593137,0.027302176372026747,0.0563624240546758,0.01599043557946622,0.013687168770539118,0.011572552586337163,-0.045398200836304706,0.048370518617622815,0.0036880362110900773,-0.07885465392151329,0.047393811208682066,-0.06854097849291674,0.02717356803695577
DKK3,-0.00030115004730251474,0.17187358673792344,0.052868610289014295,0.19218560735704548,-0.03393704088826184,0.09426712608246648,-0.21743578371565675,-0.2376793303078231,0.00889058145112299,-0.07573219661042337,0.04121615851454266,0.053045627712207735,0.01530359446212225,0.07848367203284119,0.05902458014054086,0.07669996027642051,0.05987411920865924,-0.01569232107009734
COL16A1,0.04944862801309699,0.10804406283912552,0.01623958491607396,0.32056331041485486,0.02722721450059729,0.14728385578923497,0.042785964604476506,0.042685808097006,-0.0011672632631204941,0.05566660942833566,0.002009287111344651,-0.03422899443255834,0.0833819496599565,0.03556951979679214,0.06722491015469348,0.08129757829614116,-0.008874280999380034,0.045356474987531044
TPH1,0.009997146971006005,-0.032711130882272864,,0.04962579032255645,-0.014225525160068858,0.004919899729277343,0.038001401671444494,0.07824456369285394,-0.021046585269577714,,,0.03918648698412706,,-0.025922738864272158,0.0983829344640469,0.009243941341483536,-0.05046455385591592,0.07805082929605987
TNC,0.0532152872984662,-0.15629416354190037,-0.031078122693000403,-0.01658328352246877,-0.08443055675540731,-0.024285053896526423,0.2010873541490334,0.27282707346212914,-0.16394869870352807,0.03357482795485409,-0.04134309864327895,0.12905445581786487,0.03521475780450508,-0.2965503084137769,-0.2404082220578249,-0.009413320839002039,-0.05086529974237668,-0.05073017598362464
TNFSF9,0.030287848894559356,0.06221243822959953,-0.023184198993148643,0.02180510734266697,-0.03409835872720513,0.023267599963286582,0.012810547186720634,-0.07938526010138836,0.0044416595993379444,-0.03836910174496642,-0.028810287460647645,0.06062121211285737,-0.071913139865326,0.13361786719380483,-0.022647885188624102,0.05009790120077333,0.041154523179702474,-0.028474086050871296
C4A,,,0.08236693591390433,,0.043410850766719564,,,,-0.01285020506825902,,-0.01952280787179318,,,-0.04232952933796193,,-0.04032469765742957,0.1083381024417317,-0.02422933699168019
CNTN2,-0.1122274597376124,0.04537175567908717,-0.006518128974961834,0.14643306009233922,-0.06218237923429963,0.07418774597425808,0.03730938483972816,-0.07275895474277393,0.05246369321020575,-0.010022246203301638,-0.0018011675245548382,-0.09871147501205373,-0.046571891551236436,0.167509881796997,0.18381656395957321,-0.07557927076202708,0.01978936120362694,-0.01427339377994229
F7,,0.01973012260716916,,,,,-0.0042192235453786635,0.06061503680161161,,,-0.01779849649517789,,,-0.017005719368746265,,,-0.017818290827913332,
LUM,0.11430046462532988,-0.003147113201637302,-0.020143433614094458,0.028346963781351802,-0.051945224648579334,0.06548953240640792,-0.009038418568084875,0.30966867763311945,0.006362477739953324,0.03991846340090284,-0.05740286503740063,0.04483696626971243,0.02798273231935084,0.0938999353632597,0.021414496372636833,0.00253383664077383,-0.04776982233348061,0.045165634794993595
IZUMO1,0.03987932453175805,,,,,,,,,,,,,,,,,
BTC,,-0.04103439228534058,0.10134646889486511,,0.07570416324386597,0.06997643970827729,,,,0.09671249839944053,,-0.09068290519544735,,0.030753390911749563,0.023736705422571742,-0.034600112434195314,-0.01724310394336486,0.020491873678923838
APOC1,-0.11503663742447556,0.08432606039216387,-0.010533255792707369,0.15841568804770925,0.13456471504902923,-0.005407691455163997,0.1859768444919715,0.3887601025698705,0.03213993815855354,0.006308912230112125,0.12235859646124296,-0.12892586624070992,0.10635752049462736,0.09795197271877455,0.1422518868287245,0.022531347962404434,0.07117564461994469,-0.10391204443666129
PKM,-0.0013548499773682803,-0.1614572353788794,0.02442534023097271,-0.07709742147030468,-0.06538297234069436,-0.0720445597209024,-0.06013387467875339,0.0408359349760399,-0.10864951650997218,-0.05703639442321532,0.03809871448382847,-0.013139306670862466,-0.05358826585641557,-0.28416572531873346,-0.23905320349722986,0.043852259808802745,-0.0649881639813423,-0.046771748201943006
TNF,,0.015543675028270651,0.06897697327447533,,-0.007838533364752013,0.054345873103439246,0.05886767912285205,0.05144938526587795,-0.05028460145831471,0.10900267784099534,-0.025336410929532892,-0.08774496533718959,0.061329703226853514,-0.010455707485150009,-0.04086127177993201,,,-0.053935686685429536
GNAS,0.027349692464215,0.02910787500833881,0.012985583356746143,-0.17949944454344557,-0.02727405767843211,0.038831409606517146,-0.16874747829964537,-0.22763185520136311,-0.09107996567563746,-0.08344361298377244,-0.09617869040740364,-0.057595001011488504,0.001310185268885335,-0.11194890219106318,-0.02843530846425653,0.06567607690268211,-0.10476473614673565,0.03537549200126373
BMP8B,0.02445990799639165,0.06556193043691279,-0.019062501390555882,0.049622261940799155,-0.0051507562664260854,0.03191335027021247,0.19682054045049432,0.10207648963229463,0.014913498604251285,0.06005151297155848,-0.0013575176596999623,-0.01147675591753559,0.06084767754537652,0.01771156370967034,-0.056420187046186364,-0.012122595314581942,-0.06606682437125735,0.07009433453946823
LIPH,,-0.02190301655901341,,0.00590822636672808,0.04850427159773701,,,,0.03263127888717749,,,,,-0.0025985631749280503,0.0295088196551053,,-0.0021559577178958626,-0.03504143092370885
CCL28,,-0.03588105933844039,,,,,-0.04592359397384828,,-0.012876821345719977,0.025616785654459413,,,,,,-0.027873981483538684,,-0.013971034107439948
PTPN11,-0.03298239108497372,0.0618948683258417,-0.06636968562612469,0.11296606173869374,0.026850182244940506,0.00571042534923261,0.022008561250492612,0.0974917223768392,-0.03932904144976919,0.012441806057703592,-0.00724919028612943,-0.020935898543339576,-0.08471354105780828,-0.001466405153163608,-0.015495412675633966,0.036758303502026385,-0.03149285122359182,0.026480765273965198
ADAM12,0.03438885014126295,-0.06068415614542872,0.00404325003861146,0.09478785242960305,-0.06146128883550074,0.026317735452655373,0.15154206379958998,0.19219320259404754,-0.055486101413618295,0.005739251879271649,0.031479571922346135,-0.08641506071392259,0.026252385099546277,-0.0775999599211156,-0.06282914248971339,0.016864944898401464,0.0504690892698508,0.06072349961299876
EPO,,-0.015922366025486485,,,-0.0035531876918788795,-0.03492886869110522,,,-0.026831281790278785,,-0.01618307981280619,0.09405973213563855,-0.05884397401211637,0.0020577894992660434,0.041048375044330815,,0.06864122053244152,-0.014857033669652797
EDN3,0.06844774564588528,-0.012517687057691074,0.028748192193668455,-0.04121215395110221,0.02774846717795863,-0.05129806292434657,0.01791711664251713,0.058404270500754474,0.009795387766550971,0.053462830695763866,,,-0.028900898478286738,0.0025040044542266253,-0.02980660476410189,0.07043875171615864,-0.008046503770053164,-0.026995122007550505
CCL22,,,-0.017272806272500437,,,,,,-0.004653482957358297,,,,,-0.008617846055391391,0.023686841962101076,0.010904244546376509,0.0850631116449844,0.1388211849023942
CCL2,-0.012916752177934247,-0.07555910732011481,-0.01863119438331035,0.02897603261649863,-0.031043031173671076,-0.02050281792588657,0.08923594063564926,0.10993471164854135,-0.0036697108463668356,0.007543211889484714,0.05318202033472151,-0.03243443343326039,0.027810492059398225,-0.1768268653934488,-0.08522228230119236,-0.010729797457164628,-0.0595766078750152,-0.0830093765530669
DSCAM,0.08653166318162253,0.027900824213110225,0.035155077080478235,0.16721786386261875,0.054643895465345406,0.05645714783636885,0.05607026032041057,0.05442361905863867,0.04755843877941131,0.027225864024145435,-0.023808947381870744,-0.05072185734427403,0.0387994754016374,0.16166251507394616,0.17472553747030597,0.039797663384961775,0.017635741207767633,0.01160880133596237
GPHA2,,0.03562734081886925,,,,,,,,,,,,,,,,
ANG,0.08675400671021631,-0.044890221728669966,-0.03851352073701568,-0.22344385133982228,-0.04200333996518848,-0.03240906993335721,0.012958551836985811,0.1578893492860445,0.0026525447422852274,-0.0012444533997628179,-0.03939740411862801,0.08947829436093488,0.09073785855175766,-0.10854897518746,-0.09839412416506489,0.015657447147184284,0.019990461872784877,0.08552128603632178
FBLN2,-0.046576239763502836,0.023484506057657718,0.013350755925649499,0.005318574253248702,0.03908430283662791,0.0778562707581068,-0.012272532390311541,0.0717963957619551,0.025758655052651493,0.043212351760380054,0.00262993694227562,,-0.05591455886364162,0.05055126342230945,0.025303300732977013,0.047128452798874294,-0.012104339673943216,0.024625573786577315
VTN,,-0.01727708216723463,,0.0562440892775375,-0.04754073342008824,-0.050484639253115283,-0.024588445033042115,0.017556165041803636,0.008962895839988744,0.0072682506579887654,,-0.013235511972520658,,-0.0257503747023605,0.07295838434624853,,-0.022073991865260698,-0.02422934202198091
VEGFA,0.13627219766322796,-0.21293206408720483,-0.020497279145036094,-0.27497158479777756,-0.07728228697303757,-0.11135810822735437,0.14769362491215338,0.11853616068224772,-0.13550987693199745,-0.021104581691718503,-0.0674050788468297,-0.06191477174485923,-0.0005989138645998073,-0.29708157643407407,-0.26624817951988994,-0.03330625458736147,-0.07078394409160428,-0.007839706496659223
F10,,,-0.019715815869904174,,,-0.00658064826574257,-0.04275874728565366,0.0796821674549512,0.08072237176296973,0.03496116377503706,-0.04340292266381748,-0.004004599676516222,,,-0.004773192630694626,0.02346008250512869,-0.029524877003555956,-0.026230014702325544
SERPINA1,-0.03386622729408427,-0.0028384016550836552,0.041211157201010165,0.18485990686095477,0.022214305184855905,-0.008337160850085285,0.08689125444070306,0.24222345458015443,0.02924163118209066,0.00872379441549841,-0.009160646456991993,-0.013096841529420353,0.02609715299094862,-0.18520026412071827,-0.12176265691722428,0.08274140661718306,0.024223874407739127,-0.029100380691423535
VWF,0.009983918520215854,0.06147831756501677,0.005577872007947437,0.13980050277879397,0.006946717727110367,0.11053269517477421,-0.0661886494764596,0.31025385726388494,0.00503503549179291,0.04232778249546859,0.048371661633916166,0.05608371228740706,0.04371753253626399,0.1318463037850932,0.02749199780899349,0.028484297209459452,0.06477075938147704,0.062052871557783384
GDNF,,0.03292586423473952,,-0.054649159482365074,0.07792081310522066,,0.07378436994131078,,,,-0.053773733334945714,-0.0723302024833327,-0.034102228518397865,0.004915063516815558,-0.040813101189566096,,-0.023871436232224603,
VASP,0.026033739361145534,0.007318802000612726,0.02933232218789714,-0.02949513773195209,0.01682213991254641,0.01708911377306883,0.10211752375133135,0.20604971456025012,0.013863108726894176,-0.038504955179668975,0.05527517628256661,-0.06568960646266139,0.0372602559322585,0.019292371504556264,-0.019757092783352238,0.00631436906430027,-0.053270648892587584,0.059875523264436424
ADAM15,-0.005006359175410182,0.037679757727364344,-0.0271770721265186,0.017227374394182197,0.0045814957455430705,-0.0008858226782655268,0.08713085796125229,0.10321302940769475,-0.050148452287704925,-0.012054839080932933,0.04312328768760809,-0.005589220609372637,0.03461850970832689,-0.03488622850908203,-0.035411906753613324,0.03510633532642598,0.023981152190504347,0.058852336485211085
WNT2,,-0.022814972671073526,,0.14552580840067478,,-0.004371813897242808,-0.03064046446988055,-0.11428184691744243,,-0.040609102635543626,,,,-0.05121854777615453,0.04738813763948988,,-0.02046913115320815,-0.0015927926745907593
CALCB,,,-0.024989261455277995,0.047851905899770876,,-0.05414843630913668,0.09250155100615554,-0.0538542941082519,,,,,,-0.04482559743085193,0.03975479171270798,,-0.026628671481904523,
OLFM2,-0.007230010161828617,0.15774649949749134,-0.010729467097471395,0.16310567342788135,-0.03043412970937491,0.03050145818528801,0.06007191458327633,-0.0844905286296749,-0.04423560734480243,0.05847352839671083,-0.011734992926481044,0.07513856152883036,0.09086855305053163,0.09038015158770257,0.1332985683403607,0.0316098504340138,0.0033543262288160767,-0.024078828298052045
MFAP2,0.039276519355093825,-0.036206039725959135,0.016185086687544495,,-0.0019830670458173424,0.09562352076505433,0.1602554958844849,0.23423616673007328,0.01785270202043544,0.005601283600901719,0.052075673187799536,-0.10242046942728489,0.08863879297009296,0.08965816266044262,0.08111093677836746,0.04776745849278523,0.02054102837195445,0.09058482179258898
HLA-C,0.054234497048905254,-0.0314287147004098,0.07366646337614921,0.09997878813634986,-0.016515496751101692,-0.007559667990252679,0.07791522527113975,0.36356652337882556,0.17324805287390224,0.06512967867987299,0.11436280716657851,0.06431182234283853,-0.05398893293591274,-0.17436182742387363,-0.21305538122810808,0.03220190316199852,0.0330455033075595,0.050869521210522364
THBS1,0.0029588361144126784,-0.06281277835024394,0.019081553614734594,0.0025633097494512165,-0.059280137218499784,-0.022435510754813516,0.05525301473831225,0.09146912459652971,-0.04609240765027683,0.02068555497823872,0.032244915232168055,-0.03151417893945894,0.036455285732779584,-0.004283786954764039,-0.08908467446920612,0.00886466662861212,-0.02076798274982936,0.014426649905054028
HSPA4,0.03864128838649351,0.03346373684518801,0.006673660412244771,0.006049728452824241,0.08025163879715594,-0.04795550173473403,0.06895934959513397,0.06551003839236542,0.01763428243638229,0.007735523759752882,0.03385290451002911,0.007317721915905765,0.017311404183618453,0.033890489425069024,0.04790789962638401,0.013934418996729205,0.01674818751664114,0.005149317124665933
LMAN1,0.049865331896218154,-0.09851426843298508,-0.040560564661117016,-0.2584749473121312,-0.009343043215308924,-0.04908787699368061,0.10664184786454375,0.2087887054458112,-0.03821292411108218,0.03206693734391577,-0.05192571966749402,0.02312672542728942,-0.00028351763816143104,-0.16694420821308711,-0.13904152405644027,-0.006734476544474719,-0.05306562854534181,0.019968352119417207
LYPD3,,0.061427872308870896,-0.015921932746795403,0.049511311496325164,-0.004704868828489596,0.040390705412034635,-0.005910353285791136,0.10919974628471212,0.04898645061261118,-0.024220942572818382,0.049609785843592255,-0.03425078286898439,0.02133286091031973,-0.009643037058886307,0.03810913162970083,,-0.02715099342872264,-0.017387053390259352
APOE,-0.09292341851961583,0.08228823770062325,-0.01187105818011875,0.21366966846206034,0.07785635859069802,0.014938187907156916,0.08890672122067769,0.161804724661586,0.07253926423190064,-8.28807050947713e-05,0.09885889569811375,0.037619447357511424,0.14155889194282545,0.09622735221018855,0.06033959984070757,0.07233281242909151,0.09436399289449023,-0.11939544798849423
SOSTDC1,-0.005884556814510224,0.07093474531712922,,,,-0.0031662792331243698,-0.05115729937687551,-0.021245108939944187,-0.019553232928133945,0.004598672918775503,,,,0.056979909971808636,0.10191503959064485,,0.07913302715482122,0.09852734585704573
ANXA1,-0.041931156186972594,-0.13954162679373242,0.0025906646613291454,-0.09668990093136444,-0.022214984504206003,0.012571896831251305,0.08937365826621958,0.27646089685382086,0.06518609787847096,0.09575647782424233,0.04152824411668609,-0.03900827116499678,0.008172602323392746,-0.02682645722417398,-0.10767699571312501,0.04654947418837126,0.03697057372045348,-0.0731332491365888
WNT2B,0.06201094935238767,0.005252460056533651,0.007007712875928278,0.06645857192581257,-0.004438277208154217,-0.011423577375743045,-0.051048917317201,0.03106819708641701,0.003507855672437914,-0.004536701048663024,-8.221742198996852e-05,0.04595031340563899,0.04643862767586584,0.045865012489875095,-0.03611226430810946,-0.0552701860978453,-0.01732813880200079,0.03948507596578539
AMH,,0.006363443574564345,0.008426604464689338,0.05882120551801927,-0.00420084884959791,-0.006619387202266243,0.17869870717345077,0.05277775893321771,0.08552778438662119,-0.025977720386035946,0.03240514748437568,-0.01746993520307758,0.07394994682884695,0.027855305509673876,0.158227693890097,-0.02787397792901354,0.08442876733368694,0.03263286121088962
GDF10,,0.016366186115422843,0.000142306573063704,,,-0.036623015722731446,-0.02344569460124882,0.00047699281613172815,0.019478938756328952,-0.014161254329946825,,-0.009266513649846077,,-0.028178296020818103,0.07121386282313098,-0.03518009053871436,-0.03689391501210228,-0.027914480352034088
EFNB3,0.02704932917357433,0.08819214985067717,-0.04398220079444306,0.08263004146951514,0.0494933792205477,0.026195578025171345,-0.08227309736962794,-0.05428278931709853,-0.010505852437611655,-0.004436777819302094,-0.011835792097902769,-0.02956000930284982,0.08860848188686972,-0.01482281215754384,0.05738118573945899,0.05512382819365663,-0.0736211374983085,0.02182882496816352
LTB,-0.014013164372734343,0.014693097022664798,-0.026132184896260575,,-0.009160644198562395,-0.011430906656611915,-0.025579728770436412,-0.008964116162346946,-0.022997593301704356,0.0565095685580365,0.016581766329194832,0.04412119538046023,0.009078510891812925,-0.013886100430626082,0.04301766924147052,0.03863328959681868,-0.03638423097358514,0.010692006129108715
ANGPT2,0.09027167562502952,0.03718510735201028,0.00010720933805417251,0.14800154009688243,0.0027537913508966956,0.07763937666013243,0.11512821837565242,0.3268327609071097,-0.08958643520826629,0.025874383435589152,0.07153368385081872,0.03477249750090384,0.029909078975473454,0.012439830574326793,-0.0034482113688825964,0.037510782203904976,-0.004807332605511336,0.04080713919493427
NRTN,,,,,,,,,,,,,0.01599808326772687,,,0.10646157828038952,-0.01517942443260792,
ADAM17,0.04957337576393735,-0.06985352530931781,-0.01024413885700365,-0.006091716503529794,0.01025720472425675,-0.0494873638895278,0.06435582774976825,0.14615853231020445,-0.023181323291953878,0.05106681071307625,-0.012976580153979558,0.06950459881371783,-0.015221302509168469,-0.117905529035537,-0.05611545047228474,0.06288078007710214,-0.03372709440541757,-0.011017771475963924
LRPAP1,0.04311718478651419,0.11470064441624651,-0.0034164653815691717,0.1810647416865934,0.010299783362798827,-0.06365210937613074,-0.03666466165683115,0.14580802222334024,-0.03591532644921622,-0.036718067099599835,0.026061751264934666,-0.04121110157657382,-0.010729368961950574,0.0720032232600956,0.0857196724503467,0.02380414609640247,-0.0046356547562471,0.0015264303370582544
NID1,0.09851019979013943,-0.0011951598349655053,0.0340273095649777,0.0825104873463555,0.07289875709704141,0.09605848288236286,0.057381258893444594,0.32309769372986286,-0.060196581084356146,0.04779453492766568,0.024919269046605796,0.11334815545667469,0.10328393850925092,-0.022634745800317387,-0.06315073959279405,0.0025971890239144444,-0.00315662362620785,0.07189211846496811
MST1,0.06284480746424698,-0.0019416322008097512,0.09552436986483318,0.11911877832844914,0.035465736288681306,-0.011109049107191616,0.05703587944064078,0.2877096467828678,-0.04874872138762501,-0.0029008008904988524,-0.029635551031023045,0.08122190095691467,0.04658227256196366,0.035979647976214925,0.08817165161655802,-0.03647013662057953,-0.0604112798269535,0.03823760727692675
CCL14,,,,,,,,,,,-0.02496247370041083,,,,,,,
IL13,,,,,,,,-0.03916758657741465,,,,,,,,,,
DCN,-0.0021322511419522377,0.0625175796041849,0.01297955093902907,0.10897241490913961,0.03763353058143876,0.06803923739388489,-0.08620155469298137,0.2565344415663296,0.04429553982766027,0.03855059553154355,-0.07934149820522592,0.013051944127477884,0.06428976899061474,0.11334387408849309,-0.006791384957243999,0.0529724212898235,-0.007983013945015957,-0.0003806999703641953
IGFL2,,,,,,,,,-0.042249394474882,,,,,,-0.002248569961426682,,,0.04251449829492254
COL7A1,0.027809811858560636,0.01678675213760957,0.0995932326303401,0.09673531446569446,-0.0042963931208263185,0.07399912075174489,0.07615363562684298,0.15850419669395674,-0.02694922357529595,0.047287262959524956,0.05775849098247397,0.0019726201277368233,0.056818588175679405,-0.021770311278360047,-0.04057263398979876,0.07180912900831819,-0.028184090471365664,0.03381716770196999
CALR,-0.00034535488988209415,-0.08002761671045289,0.012719676588992925,-0.029930140578184224,-0.017576313366058454,-0.04503867119393148,0.21210802225208375,0.2629123766303115,-0.10950988015725373,0.028164065001969867,-0.020768520936582047,0.033118823431930296,0.06811561873725143,-0.19690914355913228,-0.19492560189021252,0.0902811632438532,-0.027185837032326805,0.02266370612902473
PIGA,0.021560600189188067,-0.023896741260237775,-0.02778638364156682,-0.08071885329730111,-0.00280700995481022,0.05685722835442059,0.11346073032848257,0.12568366139613227,0.07808371725114384,-0.015932761739726718,-0.0019115317066032908,-0.008578449027381104,0.10049382760574288,0.025144928590585956,0.0677725967722372,0.014016519994767591,0.0521578686544458,0.030731876655139233
CD200,0.04338359385776252,0.057806589668825174,-0.014585681413430317,0.13840271203987362,0.051474494086225314,0.0006794056619050729,-0.10010362546515289,-0.06907435978448175,0.052102411216104684,-0.016007613013585015,0.001846341736238669,0.08263364346280158,0.12654243474055688,0.09338802601533545,0.12105684208644343,-0.011033775031268941,-0.005112902794519975,0.019026086774839055
GRP,,0.11902962633991317,-0.015204326497959367,,,,-0.03326817931936099,,0.049271624378944424,-0.018611366900202007,,,,,0.027764421316287924,0.04016083092095978,0.13902771483627174,-0.017628828912825766
CDH1,0.020264686005332138,0.05211420718741909,0.019408308588639588,,0.03306970254372047,,0.07952066510727304,0.15902141511534099,-0.01810080738965206,,,-0.036510101915604325,0.00673586053914769,0.018403524778926154,0.07781055031266973,0.014699484439021753,-0.029189705615669123,-0.02989320966606144
LPL,0.0810446949836978,0.09289211730502339,-0.023773614180530787,0.11543119803057603,-0.06763576819839663,0.03383714934902601,0.12125209714163478,0.31519937647292195,-0.1317134058046263,-0.030860502357008414,-0.008640620145333781,-0.026298765196225836,0.09043216167765931,0.28658722132619296,0.20537608145538158,-0.017066631982500195,-0.035090084203736646,0.03919782594075884
SEMA5A,0.012699907310148091,0.13094512462535696,-0.003656430534762105,0.24976027860288724,0.03981845152784763,0.02919253441753227,0.22379759031555438,0.2359419908445219,-0.013493062401329048,0.04186342197241633,0.0024876038436697123,0.02743780207791334,0.10595678554197036,0.17567787379201694,0.1828021460477221,0.04053162807619797,0.008409939202528922,0.05828937972291972
SEMA7A,0.043418842371933795,0.03300273403846232,0.036116356981841125,0.12261683980362761,0.05116200799756027,0.0742150772414391,0.03737757512694343,0.07193940803105812,-0.0722067136537471,-0.01599686961609039,0.04304687497035872,0.01749099600459375,0.01327442015997406,-0.04590353788708521,-0.015900183735347455,0.002407059326695735,-0.0005260150107016302,0.04761860726608018
SEMA4G,0.001714111443003018,0.01276789409142854,-0.024755234746841877,0.028266715815508242,0.09445025784396836,0.051192566182337536,0.08916926619564133,0.03457928085275024,0.07238851626916915,-0.055097860789795096,-0.0026744057113079205,-0.06039013585300398,-0.043254520585854384,0.03161483589323802,0.09425520222711625,0.0166246190399815,-0.014909189423922636,-0.01368564253950088
SEMA3B,0.03863782065342113,0.00020640827841489592,-0.036589726461892264,0.15717693217581974,-0.07073103785677361,0.07235875846588856,0.05174410040096981,0.013748280009578371,0.044274837213496655,0.015248547503514965,-0.00496986257019929,0.15389957049472144,0.006108409329030157,-0.05931536647306742,0.0021693468984477974,0.02718242436264635,-0.011803840869725456,-0.06893299652849653
RPH3A,0.08077600092451787,0.18147154360772655,-0.00401502194266417,0.08595216252021481,-0.006492397015274819,0.003766098776313211,-0.05041374006904862,-0.0885631715578501,0.03778226271555197,-0.011559308255991819,,,0.025636125951681635,0.05152131250498479,0.11538753531158819,0.07326210841106127,-0.021147146095724073,0.01231920837576159
JAG2,0.061237305258499755,0.04557327293411044,-0.03363912172877593,0.08579691463311451,0.0258889082365571,0.007213777325820994,-0.0027206188769175335,0.04188286292089822,0.03168181516415277,-0.0714628172252558,0.058342946189166967,0.05847394038273174,-0.02376453793015568,-0.026146112964285508,0.08874095265682305,-0.02272343691950631,-0.01387966721429713,0.10890511644120039
CGN,0.005343835210884335,0.09124138991615491,0.011112154220584551,0.1518286213186535,0.03192630896243694,0.033620366671131316,0.08666701028586954,0.10708838367248497,0.011071248634951028,0.02748535364749806,,-0.009402693801384072,0.004509827379951437,0.043432692906737055,0.08195013741201632,0.04730753989786135,-0.019847226699746593,-0.04185758359513494
GDF15,0.030156654944415467,-0.0192990458181873,-0.023799191081409883,-0.19189157202804924,-0.025148187866102095,-0.02514571108521019,0.14418355738834002,0.21482294110167235,-0.0552130090870664,,-0.034158226784187624,-0.04461000965513609,0.01822768521039434,-0.06573145492319632,-0.11261755390440395,-0.06738882874320729,-0.02683127566817443,0.017175458808104213
SEMA4F,0.03809197257273729,-0.011791270818394392,0.012342240782639766,0.08120315667926592,0.03966856084936195,0.0032535309445090683,-0.04267471616467023,-0.1350517666461229,-0.006484212413497025,-0.008176071878029078,0.028252347256437764,0.0444139013022043,-0.019601620017464464,0.03881182828801749,0.08182653752932391,-0.021562040938592222,0.006307215387705949,0.007641287927797076
NXPH1,0.006494864687481466,0.11578314361809856,-0.0011545030551418202,0.20312805033219364,0.07749689195312107,0.052225507986373994,0.0937069924587346,0.14353366352494967,0.04854805548870656,-0.050401937998078676,,0.0369959536784277,0.08681214594187064,0.11657736058840053,0.16444708636224634,0.01983521889761399,-0.02141546294939998,0.06903789922822744
ARF1,0.060208738673170725,0.02135839439001536,-0.04619906996616506,-0.1936110509595085,-0.06495454207438411,0.009598048240280864,-0.04838747756216758,-0.1750571048721101,-0.027443109389528424,-0.025806997944504098,0.12288322561614365,-0.010405918472477396,0.07015715910649922,0.03037028482853878,0.09063660300121244,0.021333342101844992,-0.023077237558559293,0.06730204131018923
DSC3,,0.027295375846862244,,,,,,,,,0.014310502806142468,,,,,,,-0.014857038179349689
EBI3,0.06597101141509934,0.09842922533788766,0.010019784404285864,0.05722950881681173,-0.028948650418769872,-0.010459470550337528,-0.023170480315393562,0.13291003264510606,0.05650825038325404,0.046276217203829614,-0.02419898683625709,0.06761087672876724,0.048910665862617296,0.03273289610390153,0.06067908846772796,0.06489978455463831,0.045720612353924835,-0.0036401099485872893
TIMP1,0.025985221756872394,-0.11431459819413244,-0.019990088090572317,-0.21638728605991317,-0.0777246527009643,-0.022972211693268033,0.08678459953090437,0.33323034627489023,-0.12652449205324448,0.04253174935813131,0.024039587322095844,0.0035190417868418075,0.02534485697633813,-0.31997812984445834,-0.3219018303767524,0.025515186648611757,-0.055131213229220294,0.04297475245550052
SEMA3C,0.045356079275259385,-0.0006474590037183965,-0.02362246111420504,0.07395665548514946,0.0020114296024239774,-0.03267917792123117,0.05735651924377656,-0.039988772469093596,0.008057892827888795,-0.009686520154898822,-0.04745615403892169,-0.009220795400802801,-0.02778296608148283,-0.0569439911432373,-0.1053572708985024,-0.05427660839815181,-0.0036241247284970047,0.021886639325247183
GNRH2,,,,,,,,,,,,,,,,,,-0.016099625707253852
GAS6,-0.06624549134883778,-0.03707730158047233,0.0009426269810758629,0.16750122284353172,-0.043568888516569565,0.018770051163841367,0.03321388454774062,0.1391271900132576,0.03818763556436881,-0.006204841832096713,0.0032543115497569615,-0.005768809457821353,0.008217999788006008,-0.02553646869980412,0.042493230656996415,-0.03490547369017938,0.027842727606437686,0.024175122188092556
MEPE,,0.13191399264398163,,0.07353896989272263,0.08079537119463938,-0.01796762923603229,-0.06550897626137575,-0.06420426521738945,-0.0273507733251752,-0.035804157195140615,,,,0.010345553695310468,-0.025989799856344843,,-0.0256928556253339,0.164922349626425
SERPINE1,0.05648169767814177,-0.15173081621979523,0.015764703097652856,-0.28747478225189244,-0.05093510415175343,-0.03401614762186425,0.04975914579833504,-0.09980532029385708,-0.1428360003574522,0.043994128436085814,-0.09340678290013224,-0.025980455038890883,-0.011300830121816596,-0.30640319681899125,-0.25937938857730536,-0.02841450783837837,-0.06387563973577094,-0.04988139691405717
RSPO2,-0.03737181047626503,0.06802079758945559,0.031790838518207555,-0.002036553600913192,-0.02131381453691282,-0.016229351778799042,-0.038908132264007377,-0.033914995010480176,0.00981332232758585,-0.011146749963292672,,,,0.005617104961720922,0.1058829336305336,0.003027272536360402,0.012045557480639029,0.0015202769700259446
SHBG,0.03289178202949479,0.1479823403684241,-0.0229341447621825,,-0.0076529144769340324,-0.014726553764701753,0.0007339275368352681,-0.013895328776934583,0.01221703390960528,-0.021364717562978267,,0.019507268667719572,-0.007450317023465353,-0.01872357417986191,-0.0003483067526996736,0.02227149212952325,-0.008978914194882521,-0.01783005308607196
LGALS3BP,-0.03207939157566689,-0.011069020010719388,-0.014877158001664764,0.3219522401476946,-0.02325369522199772,0.030865807694081017,0.1698077248207903,0.2347591950923752,0.06350455691233352,0.04823326997978366,0.0021503839893835435,0.03345187097775344,-0.0373005435546926,-0.11462415960833941,-0.09344336325627896,0.014625677751895562,0.009580275295887971,-0.026881927807474493
LAMB1,0.02304418813696357,0.008365125605675504,0.003964515666893596,0.13499530137150859,-0.02786805392848584,-0.014014333017538605,0.09589811795698581,0.27265429634927785,-0.06485286623163639,0.013568704437471421,-0.0049805018700789455,0.04051866137639836,0.03945119848334018,-0.13778100422959105,-0.181525328794083,0.02570524231735553,-0.04745981012911831,0.05449945729641199
SPTBN2,-0.0031610195516107963,0.08625305985767143,0.021794198954215627,0.24494628661516848,0.06007407382892621,0.09973738418324853,-0.006240120750859786,-0.1925640803224197,0.038246943425163715,-0.020706349647735312,0.0587148109784328,0.054867544640564814,0.03115930682745251,0.055066890935381876,0.14604093005603255,0.05931283394494221,-0.027441527921261043,0.06281501586622396
COL1A2,-0.019288010585034175,-0.05261903856320736,0.0260015658759327,0.07368177931023659,-0.03621425906971307,0.0907236408686982,0.02713409713727431,0.3393469243105878,-0.04303808144896721,0.042082962389516504,-0.0734856134236273,0.014082628414953969,0.00945860438176512,-0.015206354274571177,-0.11911158864559392,0.026956672149836144,-0.05172041141973668,0.05357786869395257
DEFB1,,,-0.013458057033250256,,,0.08180759037233513,,,0.008936573989156099,,,,,,,,,-0.017888159531727506
SCT,,,,,,,,,0.025164965435387703,,,,,,,,,
WNT11,,-0.030814592296570516,,,0.011961693689411296,,,0.05639673712039674,,-0.010111516414065142,-0.022807338511536327,,,0.038119362012129086,0.03854786014224029,,0.02035399357351584,-0.019717149587888692
LGALS1,-0.0696188147529743,-0.2700716392750716,-0.014534989935077456,-0.3637500815718086,-0.05246104604890454,-0.05092067527073839,-0.010784684158150792,0.1467744045291857,-0.10673102385719598,-0.031726978393225344,-0.10075808290999742,-0.03568653911951506,-0.03513237736677608,-0.3331674241719515,-0.3038024356062732,-0.03569942331419252,-0.06958441023318443,0.045487761393945926
BCAN,0.11167146226300272,0.3422331106162468,0.013165833895791056,0.33941706264558874,0.10512394182810204,0.10570199234286132,0.2190109903357762,0.3243651911060219,0.16309450365508832,-0.007971822457878702,0.0984983834010738,0.10567809964891131,0.2399555420798061,0.33715172221720113,0.33107596566611397,0.1176992320086302,0.037191992352083,-0.004458481436179328
ANOS1,0.05818748620221028,0.09395821995346107,-0.05051876425845929,0.15161144557216746,0.05187455218913866,0.03696668685296651,0.1051658937419013,0.24367444787663228,0.07630930879297344,0.0308489336974798,0.017729039512719143,0.09215314596308408,0.12648791552323066,0.16300259161012765,0.16005840177631542,0.0024274972207808682,0.05953035194623185,0.01599130950842848
EDA,-0.034130681780615374,-0.001277683840254475,-0.027770942510181446,0.04867888631441101,0.001989394326149788,-0.04140028103170644,0.10725907347268973,0.029348663458607458,-0.013689487594720856,0.0311795484704734,-0.024004689087031874,-0.04338806146921564,0.09586979960682913,0.11051831517522849,0.049752724874110615,-0.021811214058223453,0.05652576454448609,0.006689367224755031
FGF22,,0.09734067172146257,0.03366250983872721,,,-0.01314796606482965,-0.0219214693685613,-0.048718450641353835,,-0.02391942318185869,,,0.004514719957738391,0.0335213168056073,-0.005922581289758915,-0.03769269914316001,0.0032610612016624593,-0.028474082937940334
SHANK1,0.07824496533096392,-0.007331349457044187,-0.015019858715058707,,0.07012180214383608,,-0.02173707875668162,-0.04635251155904542,0.09773191463818727,-0.0054047088228025815,,,0.0010018528067157438,-0.002500662987940942,0.017187967670332788,,-0.025412130858151968,0.005918171092006113
NPVF,,,,,,,,,,,,,,-0.046733581455056156,-0.040363862457793075,,,
RAET1G,,,,,,,,,,,,,,,,,,-0.018525122400085237
TGFB1,-0.045344665677371505,-0.05345782297715498,0.05242353017718131,0.001756098271017714,0.005935244030080793,0.06567099532125653,,0.011233835938699754,0.023716512550122557,0.013011895275968648,0.007204244756454119,0.02503300575659785,0.03863304480503549,-0.050880379078874875,-0.030422285988199273,-0.010828921134329041,0.03137287857942685,0.013777054707389193
MSTN,0.15971479264071214,0.10989342265204277,-0.013139330209607841,,0.029978537846165474,0.047139110008073234,0.006364906216890099,0.20706273674768086,0.047855875104934685,-0.005289157937565742,,0.035774994664364575,0.12436447542437379,0.02972025950357385,0.018528001587686818,0.029173386224771836,-0.02582832850041876,0.057041415541850174
WNT4,,-0.03555434386430716,-0.017595330696456947,0.020791131313440972,,0.09946556766372013,-0.01046183727703755,-0.0033839593444086684,-0.031561397966104854,0.0317692403968608,,,0.010340041560722806,0.013944564896287216,0.08666743731521653,0.04946627380536527,-0.0652726423068711,0.0060777463385498585
TNFSF4,-0.012141065109925292,-0.01004875322168807,-0.022039192836679704,-0.015733812945575763,0.01328632838175253,-0.046372418610341776,-0.0265360338318486,0.025811766804857854,-0.006366344608400618,0.013627938974664546,-0.017717732245580688,0.010683694613433119,0.042344445906248515,0.08170464447120701,0.0878968013401072,0.030601259912145545,0.0206645666131094,-0.010657722172677976
NTN1,-0.05076032652866951,0.0825201683429248,0.01565755485381006,0.12581948674706364,0.004151821781515454,0.10054846367356689,0.1973105190058364,0.26557920576773003,-0.056856492379956956,0.038093822112228136,-0.03488683463844307,-0.04261388333136731,0.04779037497296208,0.049636065160279075,0.14247550221356978,0.006588912098368787,-0.030312036878543384,-0.034659516515979275
CXCL12,0.004689547725809269,0.039932487748261206,-0.05754085959743561,0.15377154137470367,0.004249980741496445,-0.0028027776044700606,0.0353875974320726,0.09051719226904248,0.02927119168447784,0.09898640077255264,0.028500453120039224,0.026433888497401692,-0.028632693435380375,-0.013447045899748516,-0.01763557742763181,-0.017006222856970354,0.013339233550823898,0.06973483013374271
GNRH1,0.06501696341337652,-0.031662480162087885,0.015083313786061234,-0.010339940300730233,0.029373692622153218,-0.02168679675607533,0.07780277740558507,0.1455750630643377,0.01579622299548608,-0.015812610570181435,-0.022281527333162347,0.06412655108144806,0.07556542004955824,-0.01898059445344667,0.06268215630166091,-0.027516581474570947,0.08303288824446488,0.09496566626488523
FGF8,,,,,,,0.018890071824832752,,,,,,,0.041010976735808835,0.009323768324612899,,0.05911329805720115,
RIMS1,-0.004621314569267866,0.12869989181021035,-0.02716219575764504,-0.024083038578050497,0.05118561604590598,-0.031347466683103134,-0.04895814660482922,-0.15089176219276268,0.02085499602870995,-0.0578913987678024,,0.10743946225080252,0.002990666614695518,0.03368148589840476,0.11404018162024294,0.04068807273099845,-0.030079726164392823,-0.032037416973882966
FGF14,-0.007234218576331489,0.10662009061854921,-0.009707739612344933,0.15154184225534909,-0.0068243322544452424,0.02677602866425774,0.03329763325618371,0.13850524538460215,0.08465678814995245,-0.014447536736871632,,-0.0015275629678358855,0.01192251934037082,0.1080700982074134,0.08862009861401524,0.01178057866533236,-0.013767428090365285,-0.006633649048869211
IGF1,-0.007664074601420452,0.005898575379296069,0.038075120340463,0.06745168490858316,-0.004894876852639942,0.009333964591321993,-0.040762539187376004,-0.04559493311146682,0.013862065768761995,-0.001225308761069587,0.06379600132494648,-0.010086037816495147,0.07377400397536198,0.04648395894286682,0.08249602758624805,-0.0296822916436008,0.005330149364181784,0.01621522381171493
TNFSF10,0.08568402254912787,-0.021904955302702932,0.0018052351160710563,0.026989592859526297,0.03998317060150589,0.0709328086603406,-0.028973469269758894,0.18426012264532304,0.08111161792216563,-0.028455799235653133,0.015023610241137443,0.014162244524545689,0.04470920691220278,0.054179990746273894,0.05646627735796931,-0.0361617500366796,-0.040886238484008255,0.1040620450157843
GDF5,-0.010705267374534541,0.02967394838325848,,,,-0.04654204449070438,0.002669842251672353,0.06864075863425442,,0.03291788609907151,0.07030524345874338,,-0.023792340480418294,-0.005205664439953621,0.09794284165787187,0.06286831088072764,0.02330331667387082,0.033194523099799714
CHAD,,,,0.046199640122235035,,-0.005484178440399807,0.010899474997148467,,,-0.018287484141661186,,,,0.1489329980104229,0.14071139005436034,-0.030594505653153775,-0.023726271555517892,
RGMA,-0.0030157406942270364,-0.03666232486733799,-0.03278450555612121,0.07136370247328593,0.009124690054799699,0.05049831001922873,0.1404565885999814,0.24199909893583502,-0.009139241322104084,0.02622375774691498,0.006008492952642722,0.1128951725866877,0.13266117839198432,0.12547149542244654,0.12569425319673935,0.03420678626957022,0.05160016430229226,-0.018585229732146918
CLEC3A,,,,,,,,,,0.06906994398993517,,,,,,,,
WNT16,0.14114002783922547,0.1058106295929975,0.032983145451233625,0.05949843146212384,-0.009208497695789667,0.029583376759866387,-0.02979643294273968,0.07171931441733592,-0.007680205184276883,0.024272881496158052,-0.019303822596185988,,,,,0.014104327547225182,-0.015179422429078852,0.045032254168770144
CX3CL1,0.056706186669076036,0.10099541452346095,0.007266604200679546,0.18327594410381098,0.008575603697908154,0.021181922670412905,-0.033902576595497134,0.0005783550270047348,0.05285497440367421,-0.03759401753957743,0.06502382281167461,0.08671628250883072,0.120483857447367,0.04370178850902489,0.030302763280048564,0.01726594105805661,-0.03571221388799498,0.06422330118251689
FGF1,-0.06169531619885639,0.024619683098394764,-0.02100010368349606,0.22182955330069884,0.04782008766375196,0.05155896201100282,-0.07754156884679801,-0.029127693348614186,-0.012945347574441081,0.06980592769394622,0.06038202989130558,0.043211970548553746,-0.0677558231355365,0.17987977344858982,0.140518933586681,-0.05228720584252208,0.08133386474791054,0.006074613606939098
ALOX5AP,-0.0746210097703732,-0.10916199968510627,-0.06898405328160624,0.07898353986329143,0.056176202444732634,-0.027011814488056896,0.007279547566997179,0.2889299848822829,0.06711290736700255,0.022264528454627966,0.10177371118989954,-0.02892246931209821,-0.06725601623055939,-0.20236617394432602,-0.15715145289848353,0.01988283461705137,-0.03259640324002402,-0.05051155762038973
IL1RN,-0.03325853171629307,-0.07493031948180395,0.017196914026583167,0.012532045093499223,-0.000452487602356503,-0.0384183385566218,-0.030354198268425045,0.0384955993369068,-0.07086605267736583,,0.0009262589993700352,0.08789691044856655,0.00469037674140088,-0.09409860562325878,-0.0663426256276522,,-0.005057291540422576,-0.02524814404483833
PCSK9,,,,,,,,,,,0.04471953180044794,,,0.012718489723821984,0.10874921338254545,,-0.014734000714178378,
NPW,,,,-0.0031883541893795117,-0.034316570041080366,-0.02831903715363525,-0.018655496341159407,,-0.027836909291702322,,-0.02361173037256804,-0.08056295574926677,-0.014638965419363364,-0.09716501007919547,-0.06630182038028397,0.047523792732201586,-0.003395695832578839,0.012950219261402243
CXCL9,0.008515722406516648,0.05258954968954663,0.04043559864615071,,0.048390542751238795,-0.004490921800548816,,0.13985237308615214,-0.04348397276070315,-0.011010708570431535,-0.005618124258348082,0.026710913101580414,-0.05329832651150205,,,-0.03311096426065342,,0.09286343638058074
ANGPTL4,0.013726709258600102,-0.2244947611011489,-0.04048007559335656,-0.24737976098917877,-0.06452100330878802,-0.036122101515345235,-0.05210686498013222,0.02799680178130023,0.046265884433063044,0.013997812209401307,-0.06951889280609731,0.0450820026656594,-0.03738924355806093,-0.2527172607220725,-0.27230927725709675,-0.04049577577225618,-0.06448301968532436,-0.01081458273859962
CCL11,,,,,,,,,,,-0.023808943462594014,,,,,,,
UCN2,,,,-0.05003942334987537,0.03713738481686293,,,0.13902168821043367,-0.028202294898168414,,0.02062614338121642,,,-0.0460068024500565,0.030035693640307753,,-0.01664934752010749,
OBP2A,,,,,,,,,,,-0.019045181922925012,,,,,,,0.0587489697372461
COL4A3,,0.05205079529551006,-0.0332936504243012,-0.021430501522861932,-0.0014186718127535687,0.05201318812536348,,,0.03163149938990251,0.04594858482574451,,,,,0.014185821411499256,0.017022642584001327,-0.023286001007972977,-0.010726329298441396
NRG3,0.021024699291630488,0.07910701389831991,-0.03826419404769748,0.04160577937318564,0.026322835726854798,0.05376895880577558,-0.09184503911446974,-0.1284261974489345,0.05862945853888684,-0.03470289142042388,,0.05042771374976684,-0.01182730049163001,0.06845664930621999,0.12907127016386657,0.059327746020484295,0.00010691593711571152,0.006250431108176214
IL23A,,0.03446532678789866,-0.018224424288017328,-0.015465706582122677,-0.03743638545322042,-0.032022612168541166,,0.08276660149767905,,,,-0.04646229991787388,,0.015949112717762372,0.11803929059382907,,,-0.02409094675027262
COLQ,0.0010469959939388759,0.07450041061203944,0.07218915471100676,0.12584563620658507,-0.03776795497731183,0.03298471956574709,0.09154324563731693,0.08876912726461877,0.04342799810642232,0.09269663547033793,0.054430017124325034,-0.0016158470462597882,-0.01376155782866909,0.11953190932679332,0.20605475901288114,0.052790184533615475,-0.02134527641703409,-0.0336188928816147
SCGB1A1,,,-0.013864256795841044,,,,,,,,,,,,0.1116717595427629,,-0.017047330200999466,
TNFSF12,0.010155103219549247,-0.010350746886235438,0.024967797912326437,0.025405594281719377,0.017519506156178963,0.03694322151489013,-0.0024903269529603918,0.20831494104820528,-0.03757775581155239,0.0635700486035944,0.04116662397239785,0.02254069432269664,0.13871503482072386,0.048759088889779444,-0.009889272523142232,0.033568445970699363,0.03187967406797614,-0.027265575092624252
DKK2,,-0.026834185963788816,-0.016269516629581173,,-0.011836128687921207,0.026362147454474853,-0.005901796517742679,-0.07500524710097986,0.018328753010571693,-0.03479267218321849,0.09483122273909995,,-0.0024859905320700573,0.027771254960361806,,,-0.0005178279261369809,0.09318890861191127
FYN,0.09368470229948533,0.1542993417864624,0.0034729648061498784,0.30086809080632787,0.01869996759861279,0.029556085860854824,0.18682974195084637,0.24239701628435897,-0.023864189112741414,-0.027225683149370725,0.05939481225920678,0.09440993461429024,0.12996267628803776,0.27309828682545106,0.2839450684465879,0.04020263784991817,0.04682844796688206,-0.034526487078278066
ACE,0.057104044599247734,0.030099677725344158,-0.022496795737347707,0.0999296707433301,0.041413453613875655,0.04142909930569565,0.06879686262595597,0.29104292210517196,0.01817152634489593,-0.011103808138175212,0.07767726879575793,0.02845475878268619,0.06337285063255281,0.14756143609166308,0.13058883139813404,0.052877709337057675,0.03714484242715659,0.03184447279146008
IL18,-0.021267731175466507,0.002116483735027918,-0.04027431741822747,0.12463344863929308,0.04297485941031638,0.03786443583651566,0.1145157375947288,0.25006217460428287,0.055997234217065435,-0.011799407748848512,0.0008288342771723705,-0.05282649031357963,0.08253213539066666,0.14870184196194047,0.1888702871386199,-0.06287099262795577,-0.014626799779486055,-0.018893724817541754
PPBP,,,,,,0.02444478975710588,,,,,-0.017798490286927527,,,-0.013861770910985187,-0.050661731766605086,-0.03249828889917259,,
CCL27,-0.03785651699718896,0.05702278243762322,,-0.01940304963881927,0.018515103343870274,-0.007725348764779467,,0.04556607303715204,-0.02625978399211755,-0.03126052210393403,,-0.07355856028748183,0.022240924275746452,0.032158954811372126,0.07151346121415181,0.08023155424344576,0.026987464255071255,0.004437233945511106
SERPING1,-0.058294345735553255,-0.08140211876142192,-0.00915765972858179,0.037503297089344655,-0.030211752109845072,0.06334494881925623,-0.013330742170064382,0.28085050989763743,0.14818683432765925,0.09768444240762461,0.07831752254406789,0.03610054045442903,0.05754616598844203,-0.07580533481699642,-0.0723022461774565,0.05641912889840409,0.03790327501712168,-0.05742963906098625
AZGP1,0.0591743289560803,-0.038838824372998626,0.028070685530743187,0.0020071162674365197,-0.04557192512974007,0.09731496005022479,0.14679953350943659,0.05139330491303366,0.13424416198288378,0.03125007383780456,,,0.016852075944714,0.06599921586781318,-0.052206802853456434,0.02547196900263176,-0.02610989782464322,-0.011722620635295127
INHA,0.17106670262554993,0.002866416421876485,-0.02124541766343925,0.08884282679904909,0.0055950346889242645,0.039992233116640796,-0.020525953121181703,0.12833868875548932,-0.02530713861803885,0.03991189379589379,-0.009462315045140291,0.026152205088568383,-0.03009410614138304,0.06919888503571292,0.034438987342525804,-0.028227169409493207,-0.0004533913252608662,-0.0049388149768762124
SEMA3G,0.05620085559901922,0.05015211398100581,-0.03492009677681499,,-0.010752521206340354,-0.009008425404366305,-0.01777971111698056,0.07208389728106573,0.08173544266036105,0.02863841252214015,0.09153458280670608,0.04365485802867955,0.03280028569068626,,,-0.02604173062919855,-0.024444483588361907,0.04816669877107172
OXT,,,,,,,,,,,,,,,,,-0.014275363533271142,
COL6A1,0.014894137043272974,-0.13411142828973657,-0.030768161330213477,-0.013194745836913794,-0.13456201774713444,-0.029680520941846495,0.12336829863722988,0.2931805295150606,-0.19337957581693296,0.12083200308311595,-0.09520705418459059,-0.019447090517560595,-0.00396299194101621,-0.23117260825876765,-0.2546178936829413,0.06025587435492137,-0.04044431619238058,0.04733955886341831
FGF17,,0.027713851519958678,-0.015204326497959367,0.03599932494485446,-0.01078216657398801,0.011106343667410217,-0.025247651294677823,-0.017245620004197354,0.014544404306971353,0.036645015449162745,-0.02021936999928323,,,-0.030749114148492275,0.044125788007694275,,-0.02974148881704072,0.26777222415215124
TNFSF8,-0.041100889375448625,,-0.013458058418755506,,-0.020758869023452985,-0.014445573918823635,,0.03731540820903293,0.08686787570780276,,,,,0.04239847762746776,0.021523386881178046,-0.02527432948944528,-0.01517942443260792,0.10031205919095419
FGF20,-0.038137410502125886,0.028477420843199236,-0.03207985646073564,,0.04779699656841055,0.06432846332055768,-0.02653604220928088,0.10120292946646245,0.01979463191748457,0.019341257418175273,,0.05685072123800298,-0.05894768436184553,0.042604807186808896,0.06484948592500532,-0.042505567751263094,0.042594473303555556,-0.027371005072103282
ICAM3,0.09534741126950375,0.00427112960551963,0.020422544050352532,-0.030460711139279596,0.06961888337674588,0.01329488875880534,0.09586741360086212,0.1144652299678223,0.01637482303106674,0.05701477889550095,0.06332041464749395,0.08204144596724483,0.05744069178829808,0.03893538543550505,0.10557874576057844,0.05670836869167558,0.07887076455878099,0.025749175231123383
LAMA4,0.08146334303996235,0.001994384918853454,0.05252891491328459,0.1827776554665884,-0.03693269590647703,0.022354524223376866,0.13375155546312958,0.33278136279296827,-0.07146472132067452,0.038692242486825526,0.06772777479519078,0.07552172991426635,0.05894885155691072,0.01069192519212902,0.010786845754013638,0.0505397595945455,-0.02985507479421867,0.07571580456109331
INHBE,,,,,,,,,,,-0.023412998843576477,,,,,,,
DLL4,0.09758470191593363,0.0005263533862964871,0.06488065980096809,0.03139185047080715,0.030617496920672393,0.03222302332478065,0.05806269528775779,0.22043897386721928,0.01595410430047982,0.03483895905547065,0.04806852796175902,0.04658774829069135,0.036375266405772835,0.10600994158139798,0.08359540023564882,-0.017607289856504664,0.025861069728198665,0.05243301058388182
SEMA3A,-0.050822261163380233,-0.030203199514403797,-0.025336789499059084,0.08489411549113549,0.005348366410284367,-0.03740579539643704,0.025114339217078518,0.0441693911858852,-0.05360150184699852,0.0633726753305202,0.10231993447508811,,,0.009360067236581508,0.035169743061310335,-0.002347403819589206,0.014742056250191446,-0.07966064961092305
RLN2,,,0.0076220978106142714,0.06736620719271873,-0.030632922474914972,0.004362640378504258,-0.031173620875973623,0.013197186166136403,-0.04520915315288731,0.04963601324946244,,,,-0.025439801652563796,,0.08399737389587711,-0.016649345684165682,0.027896662069577662
C5,0.029446788919761654,0.05434406231403653,-0.01475890813788083,0.07076525654231154,0.04912342745229463,0.04526809309782447,0.06145654270727092,0.22626227999511567,0.010249176602912306,0.05010137094629086,0.028722873348789747,0.1526796824769647,0.059563441578228585,0.045166804183264554,0.0462854678520628,-0.009059117334680693,-0.05090269836031229,-0.019136574619312067
COMP,,,,,,,,,,,-0.027656399887708145,,,,,0.0021889450369611293,,0.09165375362595267
EDN2,,-0.01265881344218916,,,,0.03615481303407343,,0.0975774445114961,-0.010406391148467767,,-0.018556003714601765,,,,,,,
C1QA,-0.17881613078702654,0.00018322790566808068,0.0011359498906499427,0.18277377896985875,-0.049633941781030824,0.056417019988107074,0.11018811431145738,0.2877306634031288,0.1141674833634089,-0.0014268810220772078,0.10078068189073133,0.016682987797730104,-0.04088340941454074,-0.06756118505640375,-0.012589217217331023,-0.040486554898928204,-0.017177307883525846,-0.007562881095394978
UTS2B,0.1386059467484893,-0.040452281304558795,-0.01644072029043776,,-0.030632922298925305,-0.031068090896516257,0.04045595996571475,,0.01757647706056768,0.05620052713752225,,0.0611284864130584,,,,,,0.0010442619174045038
COL9A3,0.06718549286676324,0.13129712055407067,0.017113254851894636,0.23993608429442684,0.011848549071239323,0.033238316968428494,0.23151531922116356,0.26374929076086734,-0.16262901301284538,0.08913723757288529,0.04899703929330966,-0.11307740514428401,-0.005444387900603926,0.037071088125083536,0.11080233929720384,0.019540574954911967,-0.02264603957239458,0.022675438637916337
DLK1,,,,,0.0026890638845886617,-0.00010935753377460669,-0.07506691348760514,,0.040102245907308015,,-0.0036978856759982376,,,,,,,
HGF,-0.0502067654564905,-0.005181474931923333,-0.02525091926994698,0.13495590337959792,0.016461040720764056,-0.023324078318512572,-0.014957898420576578,-0.0804515217604384,0.04494213682589475,0.04097202629522463,0.04304740720527718,0.05224704299706928,-0.01667223968538421,0.040023651283537236,-0.038727503052946456,-0.012546787413027765,-0.016061168528389957,0.022657321780586468
GIP,,,,,,,,,,,0.10085820033968262,,,,,,,
P4HB,0.03868873198946421,-0.16784013635555137,0.050131795919817784,-0.24981393221214881,-0.09400134585086262,-0.07622675300757285,0.1778390494562847,0.2839171236695238,-0.14219703400075456,0.04127440308272725,-0.07329550850404307,-0.006872692911054412,-0.017844311272816417,-0.2758132770042728,-0.31820647895146104,0.060083430263972976,-0.05706431462858136,0.06808776877511909
ADCYAP1,0.03934817101053331,0.011051316821262636,-0.020423977945204466,0.09308673722245045,0.00198551007859712,-0.006987163458301932,-0.053634336272420105,0.007669751356138008,-0.006907861537026154,0.015344179995191444,,0.04758876495180711,-0.017386347677325505,-0.06209197213252256,0.06755295044444089,0.03423885222466992,-0.015568748321817828,0.0038111693330763236
GREM1,0.004417262068719532,-0.008541791635786646,-0.023216955422788284,,0.021264765731051547,-0.04500361778976319,0.02693067544164016,0.01357478574602618,0.1422412666687616,0.03531911331730733,-0.03900792150855611,-0.01663895270340469,-0.06190007079783347,0.0006351912654956836,-0.002940985367222887,-0.06304533321331261,0.052971263972548074,0.005771905332251523
EGF,0.014809437876345994,-0.006520356198370624,-0.03286940234439424,,0.03592026900293096,-0.03696894988075468,0.10001030669519224,0.08697031277397392,0.012348722046855129,-0.036005183152585565,-0.024198978683372327,0.07465707856642143,-0.0385390187617083,-0.008349798925344,0.002695311156528636,-0.03668942502921727,-0.02096226004053527,0.033679729291227534
VEGFB,0.013118195465894406,-0.08276997656953053,0.011691758199474402,-0.060692030674433815,-0.0732025903596225,-0.01897741862169258,0.06519115631614812,0.17600818513620267,-0.027068363239902797,-0.020699093410365875,-0.0668553975108849,0.020898347520953552,-0.029784177840678508,-0.17166714170247735,-0.09106411935716523,0.03244287964351088,-0.019668742586322518,-0.009892699798945985
