,MGH258,UKF243,UKF248,UKF251,UKF255,UKF259,UKF260,UKF266,UKF269,UKF275,UKF296,UKF304,UKF313,UKF334,ZH1007inf,ZH1007nec,ZH1019T1,ZH1019inf,ZH8811Abulk,ZH8811Bbulk,ZH8812bulk,ZH881T1,ZH881inf,ZH916T1,ZH916bulk,ZH916inf
IGFL3,,,,,,,,,0.04582179014821345,,,,,,,,,,,,0.01993665925584565,,,0.014172324686290422,,
BMP1,-0.0003545901854482457,0.14736394095788113,0.1807941456311702,0.044378840768881024,0.06919659678020669,0.022214541469191978,0.028973515244054372,-0.046338482936798396,0.36525139097316883,-0.0020876751493192256,0.11063656371658166,0.10273421918112917,-0.04858105136090519,0.015871351138458323,0.017096554102001622,0.1310211317695926,-0.01525000984973685,0.13540901698038235,0.09640130306768498,0.1018126980007741,0.06552084667122546,0.120020636560695,0.03670592941671772,0.06782253924875169,0.10557801633567333,-0.07694739452648382
NDP,0.05460495114034954,0.12257202822158679,0.06792129420522072,-0.01736104344472178,0.11836010098243509,0.060896142552763204,-0.007232963358335583,-0.00872133566193209,0.07695941590690597,0.011292891870357445,0.019051330039675744,-0.019388680858966917,0.057384820756822455,0.06104167558301578,0.12049525989067594,0.02033963125931048,0.07224867120004388,0.04266540717350678,0.07496978230273108,0.13344974111893457,0.03582444234623991,-0.10556540624939548,0.08371620419091759,0.17074859779314727,0.07726780974036099,-0.006652313640852281
TNFSF18,0.12785146274982917,0.04260366605198089,0.041035139442529435,0.03301354598334096,,,,0.012259505648496719,0.14060860607734313,0.0079381780514221,,,,,0.017763188345229716,,-0.10386036350176168,,,,0.011257463116105778,,-0.03294473316129889,0.07230888123842727,0.09054591371689749,
IL36G,,,,,,,,,,,,,,0.06812859814212546,,,,,,,,,,,,
RTN4,0.0346198599654144,-0.1249857067393561,0.08494790677894858,0.0031682832539169,0.10007037450527595,0.009605651434496508,-0.026220573111930986,-0.013507339811597028,-0.38417781192662737,0.012876065835532727,-0.08106517822858986,-0.15943698759226363,-0.1108774254605595,-0.023363872729880303,0.04660212985699395,0.031131340159918298,0.05015712810083251,-0.027769686272855438,0.014110133447610697,0.007077299008084371,-0.15863523257405152,0.03499995112898261,-0.05264682987190931,-0.046222195349743825,-0.17445220505510067,0.13350764165418122
HEBP1,0.01221581131846319,0.022778040531476102,0.1162673418197513,0.01639679713767155,0.03716549923482823,-0.051492959802194344,-0.016085382858352096,0.04624766279472143,0.14661133477555488,0.05819500121551878,0.02239711852356008,0.09778889981238933,-0.05671570084978171,0.05079719310985712,0.023315667818845438,0.03912117973750297,-0.08475520195416333,0.010862545605320559,0.02219618953500938,0.10946913045936932,0.021205379748986432,-0.04039644904544455,-0.0005381893907620577,0.1584482160720575,-0.022179261406337303,0.026939791624890356
WNT7B,0.07087583889560611,-0.047184693533231716,-3.8861800410848216e-05,0.010703925889430334,0.009738188631752461,-0.04878338553357715,-0.0421075675806814,0.05198619700025558,-0.17413188758338993,-0.04965082694006173,-0.03799380995911213,,-0.023291166716960573,0.010757658366584074,0.02327054573779885,-0.018664629969802574,,0.03922623980953234,-0.022111499371368307,0.006542718581818999,0.053646129659134505,-0.0066960480024854845,0.05361246457225801,0.04789302978516274,0.059742098956486855,0.11053683283171666
PTMA,-0.035394889669533684,-0.0715736985788492,-0.01915591568460714,-0.003875219102487234,0.07577119714995101,-0.008056534952166239,0.019618689784712855,0.030554464581563984,-0.19508787112699225,-0.06107707454462256,0.027447940194451848,0.16566950175315798,0.034939520735892626,-0.02148541855759821,-0.018614039949318345,-0.10424470111707888,-0.10555710116291463,-0.14828854755181217,-0.04533611531713925,-0.06378630152568776,-0.07850054707136704,0.02575341082154279,-0.06677425518231105,-0.15314679229853845,-0.01994805509531977,-0.012770219512550647
FASLG,-0.02393445885168225,,,,,,,,,,,,,,,,,,,,,,,0.04319108021057225,,
CEACAM1,-0.02261328288927287,,0.05898508974322262,0.011248232936817848,,-0.008183782084169472,0.023412107448807635,,0.1546834393313558,-0.020818925533146994,,,,,,0.10294921369921421,-0.016091024626164848,0.06975124372037006,0.05740500011663558,0.01134477352359691,0.02128036168028988,-0.02746012729273146,,0.024001732833658612,,
PDAP1,0.11135417368594738,0.0030448820196016385,0.008299788759947526,0.11169918976821515,-0.022508028760135787,-0.027288849316996586,0.01479298841362868,0.014825174972471301,0.31591861920043984,0.0381382586873756,-0.026926734616147842,0.09119501495308387,0.12830323449235612,0.015620202608295395,0.06746457944047415,0.0032813724234183,0.06816700661399695,0.015578116598521957,0.06297140835220405,0.060247102432027355,0.04011743911676565,0.005827139407189277,0.015000314021789937,0.06315131490533489,0.02701649774455485,-0.008291300095330564
QDPR,0.06577561837094342,0.0019439772414650998,-0.06883086045117555,-0.036731821049015505,0.061648717036051376,0.0397457864120896,0.021776759679781498,-0.020594220418541323,-0.3317679539641885,0.0684134707613766,-0.022395097877401925,0.11570630946792207,0.0007958888475124109,0.012446828940688161,0.05325521671532473,-0.005179980097381472,-0.0681892971890146,-0.19239173276866736,-0.0015721493245841346,0.012089005184003047,-0.06591263941978448,-0.07504703807950518,0.02773327751142849,0.20503177289457308,-0.04447658504020419,-0.00044029368952219744
POMC,-0.003733825690139396,0.009544868737094241,0.08293100600159652,-0.03336270075802452,,0.04298523839575418,0.0019067618146479332,-0.030685183607518998,0.02102130585159705,-0.02707089773694176,-0.022248011365139143,0.07838117991484017,0.02597029010205432,0.029304259985167218,0.08646434463958225,0.03333417396441793,-0.05232240735760245,-0.023001818273193708,0.08044206021979884,0.1321524602725149,-0.010208191628642114,0.0010221421641471867,,0.13091443656519003,0.0788423831426137,0.01758361337803635
CCL18,,-0.024537687469343827,-0.1043448874027383,,,,,,,,,0.10313998526377187,0.08957268537915902,,,0.08609153445526656,,-0.034951586258845334,0.059839312688965085,0.009550127019400346,,-0.002744001376801056,,,,
CCL17,,,,,,-0.03501191992966833,,,,0.03784124942870069,0.045290065231817604,,,-0.0333882814506745,,,,,0.05607304983608788,0.0066987854987676,-0.007776337790324063,,,0.06391098721941031,,
VEGFD,,0.06367944859943439,0.03404529483026954,0.00032896727698318855,,0.0132986140436094,-0.006656571082838691,,0.15390722042975122,0.05673607542891297,0.018863493825228898,-0.057510248979352405,0.06359136078812233,0.002799731697951791,,0.033555926794980775,0.03657418125201438,,,-0.02699601693933094,0.02086990994091638,,,,,
TNFSF13,,,0.06462255095476836,,,0.0384181337419665,,-0.03701855976613296,,,,,,,,,,,0.043150396554981485,0.061272622937417,0.059926776224958206,-0.051940038169199836,,0.02362981467275636,0.11615660241824963,
WNT5A,-0.03443789101344466,0.06545331095460476,0.08360131829870238,0.013497280221577663,0.11987548360601787,0.11430210412142032,0.08768575840331763,0.028180195463444312,0.28455278041591026,0.06264726446663951,0.09278233911415722,-0.004644663553161026,0.039449759156291855,0.1119584052996758,0.06075636321694784,0.060241261178288014,-0.07441299008069326,0.07781865952786367,0.05449557492431549,0.08671869281188944,0.06699984811089726,0.08989582866026509,0.20703908177734423,0.12261155556916921,0.06209802643674883,0.05486438061035213
CXCL8,,-0.07098512513235956,-0.02873484501807372,0.03557636505018752,-0.20022486958450375,-0.05641805752781545,-0.10196442815091572,0.03266963794415325,0.057148076313744155,-0.031147570109032446,0.013164581893413043,0.0903301416240128,0.08925421590057936,-0.021665883222534304,,-0.02869362120610888,-0.04919232732692782,-0.09681930937408167,-0.028701744595535227,-0.09027034487958248,-0.01020180134944394,0.023618345270053236,-0.07461147477523981,0.06477453325250852,0.030482874952945518,-0.08281441405320304
GRN,-0.030352286980860066,0.03319461065302649,0.23113643559997338,0.02009336182212175,0.15997068731329758,0.02719145326896835,0.08651335501474662,-0.03139365116410859,0.3055480514948586,0.004737021046717348,0.047144941598344065,0.12244965793269719,-0.02638406854596217,-0.006623910053368712,0.09177611070986501,0.19462838714370148,-0.07509409029038575,0.08795689377970528,0.18072914928183664,0.056534203004890024,0.0683556715679462,0.05813532704699221,0.17042029947709286,-0.04965382407741659,0.056120915487996796,-0.02756062775428126
MIA,0.04999957527703336,-0.047913140292046685,0.020340055100032995,-0.012126898674950166,0.0015336365533347356,-0.04417551016632089,0.006945196988126917,0.054165527926863126,0.1207271272994056,-0.019882042750292567,0.045868813484571454,,-0.0033330258578445826,0.04058523992848884,0.15661586444605247,0.0684994348440143,-0.07613122548719145,0.16114604174016842,0.04220539095511305,0.07368051448354498,0.07146311562581044,0.14125908610437227,,0.2153006045389686,0.15507562350263296,
COL4A4,0.04486456111515871,0.02829058089595205,-0.013309894639053119,0.014744476258479897,0.011430994068968482,0.060919120674791695,0.05260326946694147,0.007751124693745731,0.07195648828904563,-0.009926296003032124,-0.01098782782621979,,,-3.6992389771453266e-05,,,0.027721072723531585,-0.03178685992888383,-0.03668590050445991,0.010301932762731551,-0.09870106854944906,-0.02162950436046398,,0.05867801468533487,-0.011680806042962332,
TAC1,0.01767040574959745,-0.07989644543993395,0.10124788013636478,-0.051510867659958125,0.06000286407398985,0.11086076161430534,-0.030861748823024115,-0.00985211375854229,-0.24153839896053506,0.004675546501743245,-0.031082713919017856,-0.0741539251827725,,-0.008640265934715587,,,,,,,,-0.10764766958496425,0.12406187744986934,0.03313404680952848,-0.09528039271656714,0.182932063497922
RARRES2,-0.03007617759490811,0.05439089607127939,-0.037041351045622846,0.011227511465905723,-0.08279490506541526,0.017773386461994393,0.02179186218237035,-0.016917200933943777,0.3443622325251521,0.12593496719884345,-0.001931093317154337,0.14317464257503376,0.13531527839652424,0.07682760655803357,-0.021761348785315715,0.11581644493078896,0.11352129565528755,0.013065429765768171,0.06094157237367547,0.09142899905716458,0.05383760862038875,0.019252722883562282,0.1458470555051217,0.17880911233804034,-0.07098612297161089,0.07551761100810095
FGF7,0.07159169839985849,0.055756970195912275,,-0.01171868932855152,-0.025614727314227943,0.013987442262052842,-0.001972103906055549,0.05674403179442421,0.13157519116377145,0.008240974151334178,0.017241255361797457,-0.045289131359954424,0.1309365717991174,0.09351446400827917,0.04359072547541337,-0.053542532078200124,-0.042461321237204815,0.0819031296513651,0.05240636551893268,0.00021870717307542636,-0.0054777288758403085,0.006714334104831846,0.13494287687587692,0.2026508739535284,0.09860456525821525,0.026799051339843817
EFNA2,,,,,,,,,,,,,,,,,,,,-0.019709828750709403,,,,,,
HBEGF,0.017099830796053636,-0.01799085550847354,0.1723395244693512,0.10227522317013826,-0.002504941997869437,-0.05397106704130269,0.008512328243181183,0.0458071193629867,0.16512163553413334,0.016673842536789434,0.009377879804279197,0.05492609097729284,0.08120448055286267,0.013451258083360793,0.07047882214202887,-0.02424311372238952,0.05440946703494744,0.09824539026172918,0.02639680030769878,0.059937405891873304,-0.02387137259462974,0.08181069296664553,-0.07385373525839321,-0.04152935757688809,0.10454025257636461,0.07802335621498858
CSF3,,-0.003985543280387539,,,-0.051683725613463835,-0.07196923081550036,-0.03237748077394366,,0.0404251028176614,,,,0.12100777107783206,,,,,,0.07171330435586515,-0.004877830354551283,,-0.042717746267925724,-0.04664925672181241,0.05860648547718435,-0.06111605522723203,
PI3,,-0.05342552814695795,0.030534430532601197,,-0.10880708720462351,-0.08260387833835654,-0.033053209300410696,,0.04367362036039814,,,,,,,0.06123402666327549,,,0.030994354833294425,-0.042712105426586176,0.04331544631507903,0.005279996378588584,,-0.09217902924538723,0.017475255145598594,
PCSK1N,-0.024635686748373145,0.05473331552627066,-0.01211843270556296,-0.03133742290707688,0.12091551365185935,0.08733194266569322,-0.005464501232716798,0.022461860550486892,-0.05214815323425132,-0.024369539902620526,-0.06991540137009597,-0.1788181602184066,-0.020547013153457954,0.005692214177529117,0.02214474328138305,0.06869429164457186,0.046659897653501016,-0.027057134345592804,0.08345534900109706,0.021783643027867117,0.12331195444667642,0.08904096316036009,-0.026930590578400023,0.18576061883902073,-0.1280300563058007,0.02611476294980734
NTS,,,,,,,0.11576249345758892,-0.022955426071636274,0.013138764160491737,0.03202832974214646,0.10422318054293274,-0.005118677498153956,,,,,,,-0.06128473596657377,-0.022429242234532423,,-0.07490345222221188,,0.050016038733489504,,
SFRP1,0.06751597447637708,-0.018895339968261936,0.07810838742144978,0.02349275581744394,,0.012120887470186421,-0.02889130939303122,0.008104781317159585,0.03114992406590297,0.09137718311039131,-0.032342550188595526,0.10248534340985954,0.031316376965417565,0.07259223789016837,0.08630696428792657,0.12575043091007435,0.03736263365631804,0.07873895955500769,0.06696992376522695,0.03619948571170668,0.009487062836078631,0.061189816276201896,-0.0005639493009058899,0.0472002035115984,0.0076441582749215906,-0.055242524524282265
CXCL13,,,,-0.007693889495719116,-0.032044864600475474,,0.07094405217968279,,,,,,0.013897439969076282,,,,,,-0.010056279784177807,0.04401017656796358,,0.01100991243789476,,,0.03971926477321519,
MICA,0.043510851644639296,0.036565712211153255,0.11174859830102575,-0.0013393160326512542,-0.03890153757588965,-0.05951650442879325,-0.0498145250884717,0.07069797576973087,0.2003041710588431,0.08719520124373556,0.03454597810650714,-0.008632286908004468,0.08605260978485131,0.09694494566453686,0.09952946798717405,-0.06328915114484376,0.031332512399318224,0.1577266582114495,0.10213556909853258,0.11866345846496498,0.04646909094979701,0.030632222795203046,0.06706977959215248,0.16473649856274494,0.09437742298292752,-0.036853975450371994
TG,0.016495232621615535,0.11260311121726983,-0.028611686723442213,0.00038735193757174526,,-0.009753542007380803,0.06365085580762996,0.023460616425237876,0.07290494574341573,-0.028086777299528434,0.013637374959170898,,0.06471794017062078,-0.019559354677898835,-0.012762063766824766,0.01129512040856791,-0.03220169633360501,0.05370718492863214,0.015418891573786116,0.01784050116159002,,0.07219247373030784,,0.014610836052454858,0.06066991245334748,
ADA,0.0031257477026042082,-0.04299956551530273,0.07884169491418237,-0.031662071710735,0.045753113990612077,-0.02299149356470849,0.039115092168404954,0.04449285900750875,0.18301173670667703,-0.025050875642658343,-0.03813505690141466,0.12064666919249686,0.05602457443130018,0.04866364548795445,0.006355257340276382,0.0380020755071202,0.08646161199069344,0.11299974677391811,0.07856945994997833,0.05772365168291945,0.06200000593275197,0.0284838898859558,0.07429087541274461,0.15299154573869195,0.07779984829407513,-0.019277101968855338
LAMC3,-0.01724591772458455,-0.0048996962825362525,0.21144454347247532,0.021834865831000805,0.16499949685164406,0.011953195138628223,0.04844335898255605,0.04655995574952366,0.2958127066352705,0.07561225181092497,0.04211260891675037,-0.0037566426052178634,0.08710929140930099,-0.03881258687271189,0.04454177510494523,0.06827945180210872,-0.018486306593693727,0.1431849082027408,0.036086835658121,0.10025052002687682,0.042485586444185854,0.12217557603788765,0.17488472775942748,-0.0029977941274701267,0.12769069200572972,-0.05792999916407948
CCL7,,,-0.022228478447322113,,,-0.03416236241521365,0.02882582716136811,,,,,,,,,,,,0.03340635514858272,,,,,-0.03264617194323151,-0.057202706053434645,
NGF,,0.05802325427231831,0.07620458178422004,,,-0.067718050040107,0.006167053682396934,-0.028616094965999858,,,,-0.05249773508916899,-0.028870314492051446,,,,0.005817527451097032,0.05451194791716713,-0.00048120654425277504,-0.04009702471581481,,0.05682212617885022,,0.060035203102736585,0.07605512232170687,
TNFSF15,,-0.07588975467142334,,,,0.04098257339716272,-0.0234236736189651,-0.010808629451697381,,,,,0.02035432187855308,,0.05228505011920468,,-0.0049677177436761736,0.05370707923541072,0.03052293174269787,,,0.08697733810786702,,0.07477217360665424,0.0325396126644372,
HMGB1,0.021869677006178048,-0.02199108044580642,-0.038601637932413994,-0.02082785991402896,0.11364804619926017,0.003364252005174836,0.07995916982250106,0.010853540390890912,0.2727050528298964,-0.014394241610440343,0.03780628804696217,0.0930272126414532,0.12393686688727493,0.033728073571479465,0.042399893344478454,0.047637558514095776,-0.09642778808700607,-0.07365184163878014,0.038823358740788405,0.025662040168298452,-0.057295516671498944,0.09168253431477924,0.003753232141836286,-0.060784841290968825,0.06419158769550805,0.1359641287011122
ITGB3BP,-0.006755432696111405,0.012535258610714096,0.012423888653162362,0.01649916062237648,0.0989798763406438,-0.023314342758450266,0.008798378895355247,0.03731786111890568,0.2945584929496752,0.03655065368520938,-0.00795187438003386,-0.06626919815488595,0.046003147717154184,0.05520954299114689,0.0286145858042256,0.014535120403013545,0.07595762861712818,0.09517817115502697,0.05160338785268121,0.05967701281333205,0.018468747147568965,0.05222681579311622,0.05283684036111005,0.13600950381619695,0.011954413577485617,-0.016232970948513753
AANAT,,0.010592595598221274,-0.01544338836002766,,,-0.007833357173986673,0.036786139362999445,,0.002049431108915521,0.045663850166945845,-0.03071343421068436,-0.0010449001536972137,,0.001054630624015959,,-0.010087176965167689,,-0.040175520993105736,0.033799946071886806,0.013538625865365058,-0.02865493293234586,,,0.08927673288592942,0.08547776175442443,
RELN,-0.007840175250756419,-0.0706730550972481,-0.026285188582497652,-0.07606043895785425,0.0721002035280943,-0.012580231413771825,-0.014719567241584375,0.008243627508919741,-0.12710968207511816,0.03248934159064107,-0.004854565317724117,-0.1004777916806165,,-0.032403917929483536,,,0.01447769906834383,,,,0.028295824492239784,-0.015099349745284164,0.06056463464402479,,-0.0035362823947463103,-0.009554636388032228
IL15,0.0007865561988187843,-0.05285404091745762,0.08380546954489969,0.02660447970500757,,0.05837083802017147,0.017235793009741072,-0.003159144708623605,0.13220982597175346,-0.040912085210645016,-0.0018764711625257138,0.07189136765744562,0.11826033233268765,0.02936377739161553,0.006912235021726136,0.0731919524861841,0.03335184847175658,0.07768540108788294,-0.0008254002752479822,0.07779614978261164,0.010101266203843298,-0.011266217005010747,0.0962458057473027,0.08952675502308786,0.14216058092047645,
UTS2,,,,,,,,,0.14732457229957852,,,,,,0.023615070250041514,-0.009802667237810475,,,0.05255220693624043,,,,,,,
BSG,0.02930478268927366,0.12494291191369541,-0.012590825724197334,-0.0407232850135936,-0.007877290371124102,-0.06316783834610554,-0.08992007854400944,0.04781901004261516,0.015934742163919848,-0.15223755216077423,-0.008169420788324227,-0.08501058218674272,0.08141577757757319,0.02356975773910474,0.09309278587268592,0.024047064524776264,0.04735124706053335,0.09165617127637292,0.1391676019852563,0.09084253037748966,0.14981449535445773,0.15382249204115964,-0.028741880867389612,0.13836648171371077,0.171423966380187,0.09477826206477787
ADAMTS3,-0.00973629394768392,0.051898937456872525,0.12262364826966989,0.01849456974643832,,0.03620452979523236,0.03611850820348241,-0.02912538393664542,0.31569114872961485,-0.027775071148768992,-0.006258763867516189,-0.031020011009723535,0.13552586653859722,0.033873431705767225,0.08534561878415171,-0.08032314643347209,,0.020610174290374404,0.08358490111570638,0.08439818452873636,0.09105145206433284,-0.024418820905086867,-0.018474142143975827,0.20813565757087868,0.10392200028625734,
CD34,0.07249496111057335,-0.05427027594794497,0.11381327665687115,0.0012250867378559272,0.1237716598248811,-0.015617199968781062,0.01711684154893236,0.11785370977973195,0.27227290163570267,0.06139215301189642,-0.03991883243473777,0.02953313285129568,0.08829550205478467,-0.016411157817224947,-0.03605028564452608,0.048429211592650706,0.0694090642460349,0.15863361111842614,0.09367314221099138,0.15292313685788467,0.08791834678463234,0.08784291198215877,0.08771708319360011,0.03726735949908809,0.027527807781064256,-0.016338205977954275
CCL23,,,,,,,,,0.10557103205863885,,,,,,0.05766428703589367,,,,,,,,,,,
PLAT,0.04353427464206375,0.08112740224699753,0.1946447306458016,0.054209183008666104,0.09878142701683466,0.05439357470758787,0.030684343460152325,0.04804077479926508,0.31101966123433417,-0.04049148577671739,0.06247926898840659,0.02551061770103404,0.07136961880138476,0.054992339891693255,0.030619254614318744,0.05014644384023991,-0.11769859303313773,0.09445967175237978,0.04752250865754046,0.04797906089918256,0.1046226143138572,0.24260542886131753,-0.06445401736495317,0.06645648840382594,0.20647703623267744,-0.07590500174139639
NTF3,,,,,,,,,,,0.05970799979671213,,-0.05345345789137016,,,,,,0.040512589129873336,0.051572075147493915,,-0.012148184950177814,,,,
LTA,,,,-0.007641454243811233,,0.01980530354488123,,,,0.04894420526968915,,,,-0.01912644171120508,,,,,,,,,,0.049517068364124305,,
CKLF,0.008727499894894405,-0.021926352513133743,-0.014918036508107173,0.03942640124565448,0.07016455035049542,0.058100849865014736,0.031442075737705175,-0.006989187535046361,0.38135382566358944,0.05443737368210707,0.007886707787929178,0.045850488370614916,0.052505525438541936,0.06812244642825599,0.039205195187677205,-0.009727056121473308,-0.06745900415785716,0.1093621851844144,0.1319327313750796,0.12213919646355957,0.004638927831672857,0.12946400309262115,0.08783427707480963,0.12090952704826556,0.10565202800098379,0.040617817775669335
APELA,,,,,,,,,,,,,0.1174827034571337,,,,,,,,,,,,,
CD24,0.09444851030626811,-0.041720695914879945,0.07886466968813087,0.04842518715464058,0.020000746082942774,-0.008339632712621064,0.045296422255469815,0.098991986780722,0.038371457629101546,0.12244771797505777,0.06838898890346325,0.03159002674563576,-0.06178461225687289,0.07633048433989037,0.049292527058509596,0.004357899732856476,0.10727529166787596,0.10580844105661875,-0.02152494258680172,-0.07772020413506991,0.05243047928408966,-0.0943861730144706,0.07676273283416829,0.13645413593828437,0.03937764404384102,0.014505866160823168
HSP90AA1,-0.015468050039803576,0.01161608080138984,-0.08627212126508678,0.06900636886074439,-0.15147562584416208,0.01467594839576728,-0.14232371967038557,0.007660438275663343,-0.3766355828869971,0.12927047974035186,-0.04845835594054757,-0.16507184570130126,-0.09290829701389146,-0.023355942465277495,0.006692283185771725,-0.055106854477345285,-0.05157143946528267,-0.14310242082170035,-0.09548903863462903,-0.11556544552092156,-0.009151522099150326,-0.042287388895054734,0.03396188511673194,-0.12675945771636807,-0.10521360251399171,0.008545050078193816
BMP4,-0.05095065527050777,-0.1077552321186359,0.03412884899494428,0.04430836901114587,0.06504378628126503,0.004336437327559409,0.06748517604704268,-0.0067610279681770994,-0.032395865524341386,0.030290688429644556,0.05659623562638904,0.0015691143069127016,0.013125395153935043,-0.00649190271928332,0.10023756324136515,0.012951150821237148,-0.0198896926776541,0.05421818086575238,-0.05197816844250805,-0.009140135796639751,0.10859374735814864,0.01603809391524407,,0.10795777900854168,0.015473210806965695,
SCGB3A1,,,-0.02015311804285632,,0.0008668526746672638,,-0.0789495394698421,-0.0522340361756769,,,-0.013537576942070008,0.0675427275795961,0.14584505097312667,-0.026920589077562396,0.03302940612938461,0.03128984501982234,-0.09271896748857386,,-0.030631782792779765,0.01963421990104129,,-0.008251809654990287,,0.03515616574541398,0.01664248345629605,
IGFBP4,0.05108423390542202,0.13019080782608847,0.22736234625523322,0.07598467338648586,0.0398039700627858,-0.016999807996930343,0.05456616516093484,0.018545375641290177,0.31698267983648737,0.048347728446500225,0.023906092549379608,0.062112790085262284,0.011460358889315668,0.0412759193258136,0.013506818687387019,0.055841494293966024,-0.030936776609613286,0.06431757505904857,0.0840879153524947,0.06674426039213598,0.12688370641531493,0.12864058958440955,0.05135708441243917,0.0246840478343549,0.08737441666045333,0.04053164869927625
RSPO4,,-0.029028989398813126,,-0.048534122131216245,,0.029784006895647874,0.03632458489409617,,,-0.046317707744605946,-0.03309051250690683,,,0.02457290123153081,,,-0.04669350339432493,,,,,0.046461905127326696,,0.1388196799823499,0.11653460727542822,
LEFTY2,0.01098469053181283,0.09991827989808574,0.20325988039677245,-0.03727693783823212,0.06996933088290554,-0.02024926493928788,0.0678437855843759,0.051021568309653514,0.2935721978186921,0.024822667178969075,0.01649890988977003,-0.00013035571314943444,0.07486514912782322,0.02801089248507968,0.047776797112962864,0.0396405087750869,,0.010939784906500074,0.022180478692770757,0.10282662043353229,0.07190529928542154,-0.08043933677755778,0.02583063103082894,0.03263761009774803,0.10085640145518683,
PF4,,,0.014411609677025239,0.015637145551649544,,0.005380382831921095,,,,,,,,,,,,,,-0.04938737303773169,,,,-0.03473934100916044,-0.04980146307692404,
ANGPTL2,0.07632189317743342,-0.019142889264034124,0.08310506339606356,0.04498421651697176,0.11379768276855827,-0.05092358048045446,0.051538325364510945,0.004926262708193122,0.2734984924589081,0.08051932143361082,0.0004365756499502513,0.09793689072045973,-0.2060725618099848,0.09997545465165282,0.15151266928928794,0.06315311989897864,-0.049584410323107224,0.007968837330067988,0.002034823721995291,0.048048945708416,0.054271482196077366,0.1067374045077679,0.10069677836071575,0.09904600186623742,0.13753892337736548,0.032745741919821346
LRIG2,-0.02047018089283095,0.054928396713166724,0.002016542191631747,0.009279901474731145,0.10641102877234365,0.05445359096246593,0.01736626420709822,0.01630133030657598,0.15224471334599093,-0.01454172294541753,0.002944933706380618,-0.009856896833695842,0.03505321967285425,-0.016805466305089573,0.1468707971943354,-0.04394234922271961,0.015490253078068146,0.0885047555352232,0.09157753877761864,0.08564214777340828,0.09142527761569384,0.030839717369434996,-0.028434873374526146,0.17781334109227132,0.14064834207352636,0.11276398832685633
ICOSLG,-0.015403943044159374,0.004100032432479833,0.12558878381444702,0.02043189151178957,-0.0025913752986147964,-0.022724348201296905,0.004675694008557666,0.021038018759619078,0.14869042697077745,0.039013929883363746,0.011845566359065139,-0.022679629515244333,0.03214046456418817,0.002232597085359082,0.02277875972603205,0.001525479370481075,-0.025758645095651244,0.0720592144090631,0.08461176326889197,0.09907237900941114,0.03455301272831721,0.04639709704778656,-0.003412202621215302,0.19558755573946457,0.12325593285377306,0.16424759019288088
WIF1,,-0.09184641691159628,-0.0637229261984274,,0.017525648822407414,,-0.017501797743990237,-0.025208529701168506,-0.21712603810707892,0.015108613211998223,-0.027947728266235865,-0.04540662037136756,,-0.03136359954814161,,,,,,,,-0.072016309114523,0.1718257393962294,,0.057200083842569506,0.05667880634989469
NPPC,0.08903081823528498,0.000916252084122116,-0.06126665719470909,,-0.05201349217670046,0.07437041534776574,-0.06450352396989702,-0.006025613161687032,0.056099630191205084,-0.010678607342803192,-0.03097977532469159,-0.12070486953039335,,0.009088082921228391,-0.07969493238537685,0.018494782499943886,0.15066686877969307,-0.0462905114988304,-0.0023118536334082755,-0.011751331543301394,0.07783924719945513,-0.0016007664895582856,-0.02272038191135802,,0.042394031616386614,0.07995223335073129
LYZ,-0.01697630151633476,0.08434363256636344,0.09184798742363211,0.02440342510098729,0.016145395084489766,-0.05736680485150729,0.09281124174694337,0.06107980698322797,0.24665619605050834,0.05987388783170988,0.04793935921363125,0.13045444140977014,0.15311044402731835,0.08959373522646154,0.1010011226565027,0.12875331067574772,0.02521449804353495,0.08439151309942963,0.13682159034054103,0.06892008966200164,-0.026675752790884417,-0.028030917100986975,0.19452085260928695,0.04900443266860971,0.012604098878463829,-0.0356048535032034
EREG,,,,,-0.02809762121771012,,0.02685021760802825,,,,,0.038421113752389546,-0.006603268510023827,,,,,,0.08368481050781551,0.031870526323965864,,-0.05070706096804955,,0.05111564148434238,0.044033923924274784,
SPTAN1,0.04575888246199021,0.10935899948958314,-0.007530773750534834,-0.024690315608283518,0.14830089534378393,0.07910765782092022,0.03845289918669346,-0.014710434744884359,-0.06450013911873882,0.047971219143900734,-0.031380587032126886,-0.13744428981644952,0.14622173081435821,0.034969667904334534,0.008377058381672046,0.019379818773506564,-0.02968854640085889,0.15671455191106717,0.07003208309553813,0.035416235990176126,0.05445068785837122,-0.02475526237604768,0.07204765201220614,0.06020665564978413,-0.1140239903118067,0.030576734221353583
PTH2,,,,,,,,,,,,,,,,,,,,,,-0.052004506487262056,,,,
LIPC,0.04913229632058293,0.01283069909698932,0.011285577120353192,-0.03763364894108417,,-0.05099522360179764,0.00404275017071914,0.009845115966490802,0.10989791089019338,0.04531182755838562,,0.04794241672624746,-0.029479078817290665,-0.0029627609287345667,-0.017716151845144502,-0.025832199669324735,-0.03881914868387397,0.050882506050443546,,,0.004825789077186776,,,0.09136498744861707,0.10229824618668822,
COL8A1,-0.025926706601092808,0.06634705545740384,0.21110031627392475,-0.00702354501353634,0.0466272774219528,-0.0255795552998548,0.12129851576123472,0.06131071680321331,0.12116026345280409,0.01643842395821881,0.022459985902936914,0.06345922827905086,-0.0454127060226468,0.09256596563533025,0.016336894836368483,-0.05639691463410246,0.10909979697622464,0.0703218590174851,0.06238336211639705,0.11332525792730469,0.11034522984090435,0.046956851496459076,0.10794034615971762,0.0025967259241390815,0.11482152402048597,
GSTM2,-0.011003762430121059,0.015418287525143327,0.039732053614970377,0.037232676524969394,-0.034668031875446224,0.044088749167058114,0.004863386621768551,0.015633667577416074,0.12834307980131726,-0.036502797624042356,0.03103579121259109,0.025677365511951274,0.0570156603965033,0.09917889009957583,-0.04245574658921523,0.01215821811997031,0.07119705348195694,0.07053935559848558,-0.03892904506123991,0.017838719960165027,0.05403414156231252,-0.017198786367309277,0.07998702251428597,0.11041750559379793,0.08119338343336263,
IL4,,,,,,,,,,,,,,,,-0.10766517147418511,,,,,,,,,,
SPX,-0.06471969452366698,0.11383902682107715,-0.020299774123226835,-0.007843111079652746,,-0.04014654298262005,-0.05128958708752272,-0.010182189206076775,-0.09068033612082743,-0.009920141729044806,0.02210159828249844,-0.03074231055476828,,-0.04519562611129844,-0.04042143801514921,,,-0.06474559409442289,0.008027901657237555,0.019234815832118425,-0.08775620854112808,-0.12326373211347766,0.049013619426114506,0.21405809311716514,-0.0717685324113506,0.09396300186249858
MFGE8,0.013084240188256751,0.001022791611305123,0.15273500209978472,0.010261488406909793,0.03793124903807962,0.05611580525204961,-0.03726799914082617,0.03522852121841111,0.09804818426055592,0.009387816271694828,0.03372985334096748,-0.04482667719027762,0.05499210222368141,0.043385344787514046,0.012250582041394512,0.11119829688211753,0.0019442713548477614,0.09489287913086114,-0.022232267702665877,0.03913749063799034,0.14471691647838125,0.07165375380739106,-0.0013333614392046068,0.030619867030032746,0.04980742419200285,0.05949932051920383
TGFA,0.08457179297105355,0.05597500040087849,-0.0203070508810494,-0.06689829062834503,0.003275112733609585,-0.024574239459649372,0.07278407000310319,0.06010446377085396,0.12753339895684954,-0.04816434680040072,0.03355662720266636,0.07285338405891982,0.05325379004406964,0.05814884622168165,-0.007568451419272962,-0.13961763243859762,-0.03549302031308503,0.038891446502104125,0.08698337271551429,0.07204295805729212,-0.023209517039321288,0.044780756668504285,-0.0439480879880091,0.22892563119823078,0.06071585145579444,0.024853783034312883
SLIT2,0.07162077753133994,-0.0642050553155846,0.14016598946049,0.007953808700085788,0.060177617307052615,-0.023551866374530783,0.03630831598782624,0.0406365878611604,-0.09365650875764761,-0.02187496150403204,0.0335152024602552,-0.10397223205343215,0.058108638406754724,-0.008836252369414776,0.03502208843734664,0.0463043115302998,-0.05115642705100493,0.09967434034091156,0.14189657282742468,0.06952022446803474,0.00477191354306722,-0.0036328061126576676,0.08123415038854612,0.044981335115105936,0.1333364058750326,0.06254274195157492
PLTP,0.03559393536237749,0.21871975893568724,0.04703174201754827,0.02851189184636158,0.17829847090909637,0.028144195136364573,0.08098490350233724,-0.001160379476254721,0.3285209323383282,0.07738653051546608,0.02442837011307745,0.1793459951485233,0.05914812249638342,0.06047377946796735,0.06581624127286023,0.0746390845180428,0.06294568912229116,0.08390209852752528,0.14353003117187932,0.10623814413242447,0.12571681833374038,0.09883317957573498,-0.0032711317193570926,0.10898118341749131,0.16328883891828683,-0.06910488707264541
APOD,0.047981728682346535,0.05705213392144949,-0.026600325516921354,0.0028078337550486885,0.12227152675340018,0.09864657574662214,0.074813586440412,-0.04728742138868659,0.14334825981049665,0.05063570655726865,0.03762751828827754,0.10050573076812519,0.09489296724796284,-0.0045177032705825656,-0.05741580718879145,0.08565323817831451,0.00708404896740589,-0.14402268334816326,0.015529236222725012,0.041522642206054436,-0.05295404862746351,0.10997900165162593,0.01707994806620756,-0.055222966217531005,-0.080422553212142,0.004688185469698159
B2M,0.02318641759661751,-0.0028192631427574636,0.30641020011315595,-0.026836240929607055,0.1658638473151382,-0.001303595088393529,0.11110790841569594,0.028973231677075568,0.4004081517226806,0.12488602491217746,0.13513747345425695,0.22022293603013726,0.25432334976731324,0.10866343289830269,0.16222092157987691,0.1253153948003798,-0.016057092925631004,0.05938757055644451,0.21448522387961733,0.18943992945282664,0.1197340736575337,0.13213895218636493,0.1850817483623168,-0.15604403298133976,0.13411362705470434,0.015048594231728704
OMG,0.046768961593309885,0.025073383638510055,-0.08979884390336333,-0.005634459777056616,0.13067561120129242,0.024340277229117576,0.04605646777633691,-0.02569605017567894,-0.10440472435534887,0.15409467279413255,0.014491843264487781,-0.027629226816227266,-0.04805829239873973,-0.010480674146432946,0.03401192291893324,0.0968670408484968,0.08183283047100194,-0.0656630360295174,0.008102882243075179,0.06506660076670862,-0.056732997041913334,-0.05716266960271045,0.03622388130033681,0.23121421210902504,-0.04803387647272176,0.019968793596228423
CXCL3,-0.0026226916884103703,0.0026694249272296417,-0.008823246508326677,0.054139507382864244,-0.060435737756710566,-0.07698108028880439,0.004090601406536805,,0.02253054091699159,-0.07429315295167555,0.058833720268053315,-0.008684739415749676,0.11666210737266262,-0.03752188923793187,0.12834931979975597,-0.0814251041745839,,,0.14277830775611425,0.05091711544788196,0.004284083929388544,-0.012119671227734632,-0.03531382185549056,0.06128766136725345,-0.0219261045199936,
CXCL10,-0.0019046085501111217,0.007145922300304811,0.09889074162365122,0.02994853074432299,,-0.01332193935251485,0.01840827555347109,-0.04904643533491521,0.32834002925125866,0.15532212331408066,0.03355156267236512,0.0714774295654651,0.039076441295000944,0.11388739421625105,0.11304227902583351,-0.09227258909278593,0.05029726484346666,0.006760725055858026,0.028885862599085377,0.02249203581337291,0.0008950541959563648,-0.0789406293122608,,0.11123145489412765,-0.0387653350480952,
RSPO3,,,-0.025872995126756514,,-0.028327649678437896,-0.01480381324991972,-0.10303673936129758,0.04002797381607841,-0.07238264850790196,-0.01711246931917095,-0.0005985840274603402,-0.014143750622444138,,0.11890638237518265,,,,,0.040350821493889064,-0.012148214448423737,,0.050232641343482175,0.04386306822166581,0.08497326343851062,-0.03204904084242609,0.04778665728932745
CORT,0.030611832019383046,0.016749997363541238,0.07003720388387727,0.05516469289923622,0.0024931918877560853,0.04786319995995917,-0.023386758112470724,0.005821810816265463,-0.09927884687876597,-0.04862204782269965,-0.020766128555952258,-0.034202530083826156,,-0.007519061965113824,,,,,0.012696404835733173,0.039717071701785664,,-0.049222376430036664,0.06134977529490081,,,0.0727427810771487
NCAN,0.033911703507155354,0.19572948666178877,0.08046711299805741,0.013206689711687413,0.0355724941294255,0.04075713007753732,-0.00022510500050480523,0.014624157979855638,0.19606833999860293,-0.06327327578555067,-0.01482214374680528,-0.04372215784856437,,0.1121208508147826,-0.06775478920902164,0.0032755667015270783,-0.08146623510483596,0.12394107374778719,-0.024756255928031334,0.027596054848133687,0.14170219096627779,-0.05410567738825369,0.13323408921884417,0.14081486889659414,0.021342780835077013,-0.09288021253025272
PRG4,,-0.04002441702940545,0.042674734698678926,,0.057708423027854366,-0.015777051110456467,0.01183305162374704,,0.033484060024895866,0.0041299036198657385,,,,0.008279914398210396,,,,,0.03375655561597395,0.015562954580600273,,0.028203122011659438,,0.06276480860336064,0.10653690121686837,
ZG16B,,,0.0017394920749705441,0.014543356145285442,,-0.002323812283414666,,,-0.029398237384722872,-0.014747060156482665,,,0.011351974079333835,,,,,-0.036682959809764736,,,,,,0.004215262260833035,-0.014682325852777518,
TGM2,-0.07712117219861857,0.04107456282512577,0.08947670769671248,-0.053245457036829445,-0.03286449127854898,-0.005739889081090952,-0.016866227544159392,-0.012473142076543967,0.13796009095687808,0.033680512718995234,0.09793241598606658,0.05622899529574723,0.008109782353973565,-0.0015932135814464875,0.0837641730593129,0.015740054290967868,0.009866793161526107,0.1063757215750075,0.057272388741766225,0.10408470259756838,0.07052480448390475,0.03910362461877209,-0.03791380754122013,0.043108419968397434,0.04834669023288811,-0.09210225144365923
VEGFC,-0.05118942504801191,-0.01337267402044897,0.04753539858542567,-0.031621738555777316,0.0021146911907770783,-0.056931708306591694,0.0073658369158172985,-0.01675564009510339,0.06877435202615609,0.006510370586810527,0.04066091203988217,0.09212169955537115,-0.028759651504357085,0.06367093550542104,0.021615731831361402,0.022709292629238553,-0.009298422070197565,-0.012037923039078285,0.028825758809220732,0.1053601603688944,0.04728305804766054,0.036368986709264195,,0.08346703874644226,0.032320655998568815,
WNT6,,-0.013956067683416045,0.05575371477396051,-0.037276938816546826,-0.0013115828971176082,0.058890375009396645,-0.011051571380141215,0.05198675151656298,0.04255552635679763,0.020468148280210707,,,-0.031267606011555295,0.005553392962382811,,0.035741250667511514,,0.052300970892922106,0.07023461596593192,0.041653960890415766,,0.019432455140140557,,0.07369327430160834,0.05726645149630949,
NRG4,,-0.03555000581285605,-0.026743816500207667,,0.04453917358652078,0.027067043177112005,-0.015927794631473934,0.08691864071306889,0.028006361319625077,0.01806258889689565,0.036173399072289086,-0.06259260451064462,,-0.047229686298693035,,,0.0012553016617415174,,,,-0.004065810348973843,-0.0221170194422933,,0.01882740900317616,-0.046292151449680394,
PMCH,,,-0.010677127545241728,,,-3.0245149176030692e-05,,,,0.012494210440607388,,,,,,,,,0.0665844075000781,0.04709777314426178,,0.048036509761735645,,0.04010514194410739,0.06627048114321415,
COL9A1,-0.010122698838190372,0.01348592281887933,0.057538016569960486,-0.009420968233486978,0.08448450108777554,0.0010604539537944302,-0.02560212010920579,0.08298508045729885,0.08884988120983461,-0.013420202958637948,0.03207345011761368,-0.046832664372172414,,-0.05080850509641272,-0.010577691624391103,0.016538508646496496,-0.07024243585148117,0.03473703396266985,0.06796169112251459,0.08073863422671446,0.09388843079642051,0.05021707374085807,,0.18681212652740056,0.1704461734047862,0.0380872110182364
GDF11,0.015019369364516689,0.054358828235616524,0.07846534835466663,0.05847109139459217,0.16257647506817116,-0.02628678428725255,0.052424969754699326,0.0420039034015549,0.2616222116286635,0.027006055814848554,-0.029779735905971237,0.0711743529108336,0.03704932948284607,0.03210341617902909,0.08167040900078984,-0.04006821910783359,0.0911124205252093,0.01930258875520466,0.05423681244262751,0.01055172590609369,0.07716457988161392,-0.002831402374985301,0.025212326893938767,0.15003127841479708,0.05124201582820847,-0.04874205912877765
RAET1E,,,,,,,,,,,,,,,,,,,,,,,,0.029603297775236178,,
IL24,,,,,,,,,,,,,0.019565017610181926,,,,,,-0.011328176590269957,0.030069503254370942,,,,,-0.014256228178891137,
SORBS1,0.011656408207647318,0.029492118182914875,0.08481793610611507,0.003228793745388987,0.17358304262257956,0.07251877698956133,0.028506821506886416,-0.035447096570768305,-0.032634315467920415,-0.014404711771741963,-0.00013658905303452803,-0.026978928499897185,0.0016518169441004996,-0.01411086970096582,-0.04404624491548659,-0.006570974328332028,-0.010522025297131987,0.04439566473154025,0.06340585978627619,0.06431664050272431,0.018855492244996407,0.1421613641375203,-0.0010078789062306088,0.03546048462785474,0.006746383001978784,-0.00800479103426441
DLL1,0.05838798571937289,-0.04020263948477583,0.08597270716406767,0.02743433598805157,0.06794440939055918,0.09568281311645015,0.011915629026414278,0.05941497504608706,0.1850338241958615,0.012128109113872236,-0.028715683978307885,0.1041496287832229,0.006038948302342572,0.05161807591109489,0.12661048236561806,0.10271774520454693,-0.03791025334951754,0.04042819517987483,-0.036180295116123036,-0.044455206049491915,-0.011781931679239951,-0.01615280599480625,-0.011516412462477182,0.09849336368112083,0.1321399709235873,0.04219381256118275
TLN1,-0.00043195861088481206,0.09611862013358398,0.14271489992789063,0.028001120178844045,0.04519199198714615,-0.010771294522295237,0.08219779883923552,0.10751446754051236,0.3116942269628261,0.00234598196016127,0.10968907120867324,0.10615513395581677,0.08162844353749639,-0.04732970628092387,0.043857598189231746,0.008255513690892322,-0.05091252983709564,0.10457782160329558,-0.007983900337379975,0.022397444123577054,0.058475168873712575,0.03740544122907615,0.1862502140927474,-0.05291363644189833,0.08130223810732337,0.09343356028699965
COL2A1,0.0006126928346947095,0.04944021845060318,0.023851978642140274,,,,0.028180766411078972,0.09809371566319376,0.025629045006121853,,,,,-0.03809242093354076,,,,,0.08929719208985101,0.08079796399253455,,-0.03653843070866093,,-0.007648182868239183,0.031133186059081434,
SHH,,,,,,0.01834849499470938,-0.04728992745977801,-0.012891203100263975,0.05359417706782366,0.0064459391984106615,-0.030582235702427126,,,-0.025457867096000196,0.13289525808128022,-0.12926712290822598,,,0.004676616153219689,0.08818090100645978,0.11474236419525385,0.069508365737715,,0.13708659727853334,0.04313406528081408,
PON2,0.03086040978204535,0.16746494266715367,0.04947020002886361,-0.06255103414854356,0.14927365237172244,0.1231099385025409,0.12160145454001661,-0.05861320589393117,0.31281600423094286,-0.07816104078897969,0.03200211097322241,-0.023764814663445117,0.2149949496821073,0.10843758590212908,0.15334878299487473,0.0604546348958264,-0.07632182110121812,0.06618196868203692,0.11460707182124524,0.06297554568979828,0.06979191001582594,0.016881854758025516,0.0890077248272656,0.10782302255382574,0.166969228548093,0.058451914415370454
ICAM5,,-0.07011336958638711,0.033871512766112756,-0.018318387392080058,-0.04299722255795247,0.042689389093377016,-0.09425806931115431,-0.03973383424582384,-0.0734313994282782,0.033598897932037027,-0.02923010785740874,-0.10547396797571004,-0.032862746414099794,-0.04260563366469018,,,,,-0.0028350421281370247,-0.009200399377842937,,0.009526937717008957,-0.011940927221947431,0.11951463178820464,-0.09355614446886343,0.01574966194780658
HPX,-0.019022178478561056,0.09575265015185115,-0.021316270008733894,,0.10234047044389658,-0.02371322295924539,-0.0037831428662081267,0.03664025800536752,0.12650119195378245,0.01473529642324692,-0.03309051397364501,,0.12409247810187617,0.12860682326509837,0.10730533799899482,-0.0006666806381470834,-0.06319187600138752,-0.007211694092575836,0.044664767475603655,0.12361525871584829,0.040677955009694164,0.030607394942036324,,0.1369235000306631,0.09606397840410152,
SFRP2,,0.01121877943125343,0.002086583284190789,,,-0.02900377306534913,,0.003913351265074136,0.009342376785496166,0.06605970492024094,0.001337936381690209,0.03469822488990306,0.13395573501161606,-0.012161523477637798,0.08939643723901418,-0.016260779198545787,,0.0510927551506521,0.07385709371452712,0.13683224546403303,0.06710728031123088,0.07409402425251238,0.04650152415901713,0.11768757167395374,0.10397066564281317,0.0017537545617617707
CFC1,,,,,,,,-0.0029653355058026853,,-0.02718611308382884,,0.004610008981520446,,,,,,,,,,,,,-0.027865524427143407,
CD70,,,0.05191761989697674,,,-0.0752088418183329,,,,0.0031640317900060743,,,0.08026761972340786,,,,0.014155296189360898,,0.13728977841898904,0.08884023145829653,,0.036017883124284764,,0.018914960275505058,-0.019499669130613934,
HP,0.0079792680588982,0.11332603021446867,-0.012396519794068887,,0.14444351135028186,-0.006300254242503181,0.09671803967879561,,0.10773242296691027,0.12202870946544427,0.034280583331219854,0.08681751586597235,,0.09537095833342679,0.06289509050137138,0.009072216262711251,-0.09196105135084855,0.08888503539787897,0.17142608976964113,0.11396503230565394,0.013136727495378248,0.02926337686004253,,0.04743138506201815,0.09031227981836758,
CXCL2,0.025475356057326218,-0.04148737282002204,0.016434083404047096,0.0026561971720979595,-0.07542961508865309,0.0339435319554633,0.06371839830119623,0.028041605675172374,0.10120233149123566,0.016996288067721212,-0.0069781964019629775,0.046427277317971805,0.16036135914770638,0.00453772499231222,0.03385524145334132,0.03558976542801927,0.032644626313509166,,0.09855225349365589,0.09048886872169716,0.05924498939215605,-0.00510349566352699,-0.034836855563511716,0.06845795918400635,-0.006436387354040041,0.09359926755052153
NPPB,,,0.028592896880764246,,-0.07176561415494927,-0.11967947535016317,,,,-0.045773922978606045,,,,-0.012886388897725913,,,,,0.04594279169078652,0.02936450810251947,,0.003961864826461448,,0.030083453443132225,,
CCK,0.03971701371717239,-0.1137634202283862,-0.0003836191318919671,-0.015120312669303823,0.07515339871695914,0.061935261200581515,-0.0935554544939289,-0.037150623633847905,-0.3152198129404736,-0.0379960044507143,-0.10352062720214475,-0.20221909535608862,,-0.06402379139015511,-0.03756378692104285,,,0.010800562005057801,-0.044928832202956626,0.07380193402250342,-0.03226352226859238,-0.011968227838773625,0.06083591536807029,0.07659572589927213,-0.21042226096479852,-0.026929933505501824
SEMA6A,0.0337305311256155,0.16557622231288294,-0.015790028356725914,0.02776801015999512,0.12380477714480861,0.05276220399556152,0.06973465722968661,0.00044365118522692146,0.24155913067555512,-0.0214323156610353,0.061765274220148714,0.07868216240956921,0.10164708785884573,0.05730205822716302,-0.013689833538541448,-0.027361584745926537,-0.1036183837155297,-0.018305217717855156,-0.025341024468022402,0.03816347899743952,0.029667790491781722,-0.0037320951046793073,0.04073369356804506,0.1298728865390007,0.23147218319110177,-0.011546534257402014
IRAK4,0.02485445794551456,0.043250637034541455,0.10390879953461993,0.045470655412612776,0.04979916794628562,0.0010326840851223535,0.008405474251969369,0.09635099487907224,0.19272192454375844,0.03364547884171971,-0.010167284012772414,0.06995408333324085,0.046942163480758484,0.05533637558550133,0.00463555888910855,-0.03805849437814164,0.030727362720941606,0.1838007151281592,0.09370718834096164,0.05683296070163849,0.04988694699156637,-0.0067405680448388,0.09908796952217899,0.24126106448276838,0.1858190358570634,0.05260969922140751
GSTP1,-0.03126582425887405,0.057494314704025024,0.014497586996298733,-0.01300202023445944,-0.01633580026205759,-0.023024237405038266,0.12058376392381923,0.03146509375256998,0.2819160896833393,0.06418954615401903,-0.0014950471127272238,0.20543139481582587,0.09610982281910489,0.06897132932538583,-0.1416673719515121,0.052565636819199735,-0.0284086957340005,-0.09342415140703865,0.07510563237208129,0.1301728373761524,-0.05662122117749958,0.056345347797102534,-0.005103147089246084,0.1302270717986089,0.12814637540560123,0.036579130685965786
VCAM1,0.03914866701016262,0.05894804777588978,0.1654168517642277,0.02216394243767994,-0.01931960292447518,0.057787356783553574,0.06870870634273003,0.037047752871639784,0.32079668385599375,0.10693086334816379,0.07946316817974047,0.08938137499712107,0.008366676915554176,0.058726221369870255,0.052127181464828504,-0.016985860587558917,-0.10365231221014422,0.11375267621204806,0.11358117035136008,0.029622249847315943,0.0968562387377844,-0.027359703444819986,-0.04973788006397928,0.21660424546340112,0.03304013622064267,0.005336119330841745
NXPH3,0.09343953416414529,0.061143596820467834,-0.01496113261468772,0.039731472733318514,0.07978554568930132,0.027914525131691112,0.020357863906438504,0.030179398846041976,0.10053962626405367,0.032176945776341434,-0.006411637000673146,-0.009091572041641616,-0.025867751497375493,0.0039189825823066045,0.05274347372143857,-0.005536273571201865,0.0028201507635961048,0.022495220919455727,0.09809250269454863,0.058402523506866394,0.04743538988875681,0.021670110304664224,0.04204172297624753,0.22724886059992813,0.06975772858418904,-0.029444016529631734
MTMR4,0.05313414136989433,-0.032215398554851775,-0.024322852868438098,0.042069920051281746,0.07876628741484472,0.04573752454064238,0.016323431548814913,-0.029517683057991673,0.029105663530559444,0.005190622848240193,-0.015503827156726947,0.001121600432227454,0.02219433337100101,0.02052877056540606,0.0017576878963666267,0.007568151277384844,-0.061804513885653556,-0.015792421201706413,0.044841122331844695,0.10195855977604722,0.038916373237488845,-0.06711721830055493,-0.017098604199591347,0.1519088657075775,0.1094361126992147,0.0387241207276348
LAMC2,,-0.004712786541058679,-0.01772537678238464,,,-0.0274783249479216,,0.04380631633490393,,0.0035398776746521005,,,0.02976577341524187,,,,-0.026616810353518466,,0.013471748618711156,-0.0007339012481596235,0.018048791821724076,-0.04654925647195346,,0.10454763360476746,-0.005327627155725437,
IL10,-0.0195784344883672,-0.01790413338484937,0.06830414285032395,0.03435095234039847,0.04225439303339759,-0.022147766161754925,0.12129833628768429,,0.07660855755845761,0.09171515586942836,,0.19259384778299402,0.0975894785472028,0.015283864876164262,0.10990988000356491,0.040209663924761184,0.03344105007960182,0.0999159634691813,0.06398750675620671,0.041892252316258455,0.07994266909897707,0.020836920251497654,,0.08858734604245623,0.04277250375206072,
SEMA4D,-0.03535030048592305,0.023440975131693832,0.11862424635928714,0.11546164986556902,0.17582562441392266,0.07776383385776016,0.020485726738288714,-0.030219071565385384,-0.1449162545713191,0.031263821597828,0.007357076934780683,0.1310762051382937,0.052564977857289946,-0.038182469114340194,0.020274616338430678,0.10136142924936355,0.05558514624060899,-0.09096100270565087,0.03865632175388072,0.03000700478446381,-0.09604645329580574,-0.04825900089715211,0.05060538953141319,0.1848151745096724,0.01587533317198378,0.029312763307716948
TRH,0.04648719975520498,-0.005061553461098643,0.12530281497271312,,-0.0023976888277988458,-0.008234728237247732,-0.05173901901180236,0.04662053403847158,0.16579901340548808,0.05605920327472532,,-0.06072340258452615,,0.05253888850594255,0.06122030924757352,0.09479575207465928,,,0.026041123954642063,0.019547807620532914,0.139500215489459,0.01263993622919644,0.07830956539088044,0.03740933770621114,0.1852293102019561,
SEMA6D,0.04449152086815734,0.1220224885910846,0.017104928093091738,0.08190167727015221,0.08277333467454749,0.038437879865911226,-0.03801562400638619,0.05893208385519817,0.14985412490671635,-0.03035456949900848,0.044955107341822696,0.010548552958498053,0.10308392439635554,0.0449371066577595,0.012262609051231574,0.040634328341772656,0.07557309581015277,0.08391204400330701,0.032150140752784634,0.06859828774070201,0.07552809966069042,-0.02771645406172299,0.16333061014192735,0.13100323060786104,0.1870550523971722,-0.006602422898997237
CEL,,,,,0.03514305534098505,,0.027514069466095418,,,,,,,,,-0.12713082082859045,0.023843969726737708,0.011975846795375307,0.007812670722259942,0.026299135094014364,0.09926679082567211,0.045494081978945944,,0.10059589460552536,0.07034798664564354,
PDCD1LG2,0.007518361542355474,0.04622582284491438,0.09430507604141983,0.03157126499203283,0.022588300905145357,-0.027392219124664222,0.05561553695118137,-0.011516400120656464,0.047368782703511796,0.05294641647099363,-0.0005540751712245944,-0.021866302226682174,0.03080971515040546,0.006886294006491357,0.07550514988879758,0.0307734549201661,0.06853781820895422,0.11430940060892722,0.06316861522284468,0.07809891275173732,0.07371459824633121,-0.046110810447181676,,0.16340819359048744,0.0351422736339897,
SPINT1,-0.018398625387097554,0.06448480817472432,0.0653501963931709,-0.0022111672309929604,0.12258078351729149,-0.07310945530468073,-0.01919341809441466,0.07725867871941033,0.14911151660052657,-0.05657910768516321,0.025221308057909522,0.014173248643486316,0.07987682325745182,0.008592086725761212,-0.04124662269841737,0.06891139322615655,0.0025347938284256788,0.14438383571332794,0.05564051713089217,0.052973065800438826,0.03267242247072741,0.058714600134314315,,0.13277896903714334,0.06510888615881832,
CTHRC1,0.09490984721714736,0.034658237917548136,0.11972299287568401,-0.031499940312620434,0.0407186953687323,0.02333952615644314,0.04696991537768083,0.024779619232634578,0.1754752655136047,0.01624538399248236,0.014891038267375664,0.05711145620483209,-0.2364403239577229,-0.002745290888671682,0.16669863692048711,0.10763899063301452,0.03995523857133879,0.04490166905200359,0.056136945447513,0.056558998031229754,0.10853746760349992,0.09323778399212722,,0.05689035934750169,0.15858556718232464,0.047343028513065086
PODXL,0.06713669645593275,0.05801033017656579,0.19197371305410751,0.0406346663655003,0.1882778912968192,0.06951503895478196,0.1418057762158093,0.059354552785324366,0.35235878859013775,0.019830048082538652,0.054906573859330614,-0.08676307510918166,0.006983188985513948,0.01782104379258659,0.10379717452356484,0.0764595823068648,-0.10596813391783423,0.16594685461322659,0.14745493243326638,0.09665880975749426,0.07021696921630308,0.08557447174464125,0.013854146712254115,-0.020018211115501946,0.23263409285844514,-0.03323885094510079
JAM3,-0.01589896780736379,0.07042322875445776,0.1030476724516645,0.033749394456349946,0.08489925176791326,0.05493685401630616,0.03514935802753718,0.0026861000274404053,0.24045126267472788,-0.03633495901220829,0.02356116967514615,0.10943250874079502,0.02075937779199414,0.025380377914088134,0.0023716987983232003,0.16396823480643974,0.03477756364892477,-0.07198559321546927,0.17744709450800217,0.10371348311873069,-0.05254973854889174,0.10237701489098115,-0.01343569868697766,0.007098148224059553,0.13604889503870138,0.047796063990839105
TGFB2,-0.002148604581164054,0.016948609205758934,0.17382369424885272,0.011244432533375358,0.09525352245610123,0.03392457612278569,0.060292018190723634,0.06982398119038902,0.3378198277414355,0.032687824535870255,0.0071407481742015695,0.0041640993668204665,0.031000012772226478,0.021990477633555293,0.03860456590018867,0.020580290599146095,0.032669705284742966,0.08389323523220989,0.09950517314515539,0.09657469765297721,0.060053397464325406,-0.004568504288453323,0.06942070787902796,0.028693831944008912,0.14354869424560732,0.11253543737255867
COL18A1,-0.013025637823026742,0.036380031742382656,0.24056723785654704,0.02252769135453213,0.1687934963848922,0.011158107311424586,0.0432732770749459,0.09331518016971324,0.3101272789126353,-0.0019524649248486075,0.04423507792025072,0.15045192957373776,0.1048599451957095,0.04823889960453356,0.007241131475092837,0.05046087124668894,0.03196465561335288,0.12594908043054795,0.11352348459338706,0.04927034598400463,0.12542318063893398,0.1493392341520164,0.037256549750973166,-0.14566645517716073,0.09001361755446047,-0.02615802641068129
NODAL,0.09293664298105127,,0.032476422579836836,-0.026845124368248655,,0.030395959537102033,0.015297914058592921,-0.009321188912683222,0.17074523345160664,,,,,0.0015290063332366306,-0.029667806773438707,0.04668339544026468,-0.021315418581205406,0.153292831184961,-0.015850686141067275,-0.009861595987809633,0.11015387696020955,-0.02245565304991576,,0.057203009297134316,-0.053994632938673244,
INHBB,0.030413076487382222,0.01616424567862714,-0.04107540577191106,-0.01174605533774317,0.12334674070375477,-0.014516537744336248,0.05237976851042464,0.01135094732487448,0.15176578172166635,0.04331433196799006,0.018775306074351093,0.12268935229699036,0.10098138165299914,0.055627920103631136,0.0352109895273906,-0.05300081366646941,0.040174375229388784,0.10341091861872163,0.1376364244975211,0.12216824388267442,0.052508990626649175,0.04628764075629803,0.05177560279643291,0.2424725434269519,0.15606035167081053,0.07364139444327265
LCN1,,,0.004865433174889779,,,,,,0.03872070744321485,,,,,,-0.019708759741155785,,,,0.05955426261697729,-0.0078067203402202075,,,,-0.01974276400064556,0.07128711393068987,
ARF4,-0.06476335753397351,0.02281572276119109,0.08464054176372147,0.01584321438622117,-0.07815240455726637,-0.009508836410123959,-0.007908941631936861,0.013516119138639314,0.19126412219019945,0.008974457837091509,-0.07706969745108437,-0.015355350253817917,0.13551635659475436,0.013682050020531323,0.0031732636717762782,0.02088443815749547,0.13108095062955638,0.08457312602404737,0.05586835742638812,0.026530722573689547,0.026777087423227625,0.03897345049408807,-0.08939406943657903,-0.04148426440793761,0.06672305367639945,0.019986828567332162
CXCL14,0.025009223430532645,-0.12395941162029345,0.07369302958116415,0.0006032110398589406,-0.0866319359544557,-0.010942502867005831,-0.04696160218127517,0.0005498159661412411,-0.06079167162676491,-0.04077723289764567,-0.004694947310679069,-0.03527295919751186,-0.06408127209079338,-0.014353217594542804,0.20230722375016885,-0.05677384323832525,0.010051842079215547,0.07600549357289114,0.0702561604641303,0.0666133392767101,0.1443995831978992,-0.04482985051584376,-0.06155935802943834,0.15081275549440334,0.10216733619863855,-0.026704952536091082
LIF,0.08692613366330158,-0.036368883769174395,0.12224637866928484,0.05458351686539188,-0.12013535409372389,-0.08577126991387574,-0.028094741523363213,0.023609054228641298,0.15403593766736332,-0.021348903872608946,-0.03922955975696702,0.0330135197895322,0.023510534525675354,0.020942036899340124,0.12142034739442072,0.030957326591080164,-0.03850848999354513,0.017917754336750084,0.051954791903436874,0.015831187958977606,0.1031798929666658,0.147511495312932,0.061372784524380095,-0.04418777535258225,0.08824528735936976,
IL17B,,0.05263624143294555,,,0.03938436214205541,,,,0.07705688819576302,,,,-0.008017553191858122,,0.06492691345321303,-0.1463210030068965,0.102051458068776,,0.016477818781052204,0.06266499127804495,,0.027616644676852656,,0.026218858535861207,-0.008630910283048101,
MMP1,,,0.04029042080352422,,-0.0849533006657489,,0.0674285010500109,,,,,,-0.17166388589314194,,0.04951409878519079,0.13202605548618648,,,0.05656100274647175,-0.037793612894206664,,0.020390822205878418,,0.02426722683451718,-0.09194873944673355,
MATN1,,-0.00637521359015885,0.014102085029061295,,-0.050619547396831624,,,0.10385337929133458,-0.032683007659855996,-0.014186666322686434,,,-0.01773932269074979,0.022525997031323925,,,-0.010315802619813871,,0.05435370315017439,0.012256157631029925,0.004224396806043692,0.001776448168820875,,0.01627937494851051,0.05117003224831618,
ADAM28,0.010332576646865299,0.003982167860453661,0.1489614858345217,0.09631038002661957,-0.04360765021176799,0.07064406442642723,0.012817116860012296,-0.001460783634601482,0.18638512646258157,0.057699040870742735,0.049331128496192304,-0.02911698601866277,0.0790531010871951,0.057411342765238994,0.037379144809530106,-0.00026729424555845384,-0.042224306587846906,0.10761334580198446,0.061230576765485926,0.05826648801118305,0.038893876637770136,-0.00785938582078109,0.076475497633633,0.16121607712463976,0.048740481258639286,-0.06741921415862186
TCN2,-0.016530196843529705,0.021399477854724385,0.12694733441707298,0.021043915089965445,0.096713661643645,-0.005354271124473142,0.09042261131617545,-0.023794173770595395,0.2542465009265661,0.05194041121982679,0.0007354344556294856,0.0816822595930356,0.19590317683390124,-0.023546641828024042,0.016986585698379627,0.0574028406681917,-0.05212939292159192,0.03957563678325902,0.11495641043934028,0.11900210023934377,0.06746372150592311,-0.031120160103313112,0.19186878185857723,0.12648042893486064,0.0377680457840555,-0.03794943401641408
THPO,,,0.0280638620292938,,,-0.045759576611043254,,0.01649577973652664,0.09290903493934734,0.051635145572862626,0.026767211796040295,-0.07067748705040457,,-0.019931688394512252,,0.1316536562858613,0.02453658781208688,0.12489115306452946,,,,-0.017928910409594684,,0.058678700477162435,-0.007118320589443009,
CUBN,0.01718663791101672,0.08627454828788131,0.09549831341330169,0.0489170735809294,0.01936437663538348,-0.002612633321161147,-0.002777504910624522,-0.005596821221630595,0.12982657854418286,0.016588642956516703,0.03146972251706191,0.07071020648465426,0.07198236896928285,0.030050201577794627,0.018772031707479857,-0.00431442479667837,-0.0736330600391239,0.14607108782530878,0.02389302508514892,0.08061197876122145,0.15420440073277863,0.0018564703536541882,0.10820851302510723,0.14957211007459428,0.06166560012152284,
TIMP3,0.08755503366309231,0.05252573791886675,-0.0014128043188191062,-0.011126633758342346,0.0359274817615979,0.06203326955907108,0.03221844766392937,-0.016779866779485383,0.17367270497697715,0.014479886392684107,-0.023411793074549384,-0.005829035310417287,-0.031709209897394265,-0.009164353405031932,0.003440098704043632,0.0484240856226761,-0.0009493774704049327,-0.026356658633103918,-0.09811880102568239,-0.05026434582880043,0.08957896566394523,0.035093748061515787,0.030617095152246743,-0.010957456902212281,0.14020624986665223,0.06757635736075376
PIGF,0.04427890936357256,-0.015538113898439329,0.03189049532069753,-0.03007511090863248,0.10315676255348113,0.05342473141665669,0.042959998561393355,0.09111915458187825,0.24162259436658065,0.05686135608235158,0.037182559393869344,0.06008373440908416,0.0721198822723988,0.08711683913228441,0.07257352419227718,0.009775098379375026,0.0056470608462698205,0.054922750841244615,0.12310222928208245,0.0828250686372243,0.04070490055748569,-0.013454537194677294,0.15371133226074918,0.24466096210948673,0.025188034581767656,0.07160221287509395
CRH,,,-0.009681566323392522,0.012966462433612052,,-0.027356860596504416,-0.05069086537197767,-0.020293070130274822,-0.05610290353528802,0.0021194810716132044,0.014738826274323935,0.061328709208031185,,0.039067653270054715,,,,,0.08266518031039395,0.08664988559590549,0.055532267362779726,-0.01602631572241384,-0.026172185837707525,0.08250164980207866,0.056982342884947614,0.09536330247258284
BDNF,,-0.04747349848450741,0.06881800243335126,-0.02240232270723919,-0.05345256637807545,-0.012964569211637796,-0.07632907246172647,-0.03956396223117786,-0.2578629482706557,0.04129413611293276,-0.05278459297901152,-0.030932671366439412,0.05062186723687571,-0.04290184910397697,-0.06892791531709087,-0.0877659383352723,,,0.13541677591972387,0.08011813395447766,0.12252428368374482,0.09347311015907202,-0.05594638865921462,0.1383853089589958,0.17141337932244213,0.08956301133118853
CCL5,0.008314421363654427,0.042417751103913666,0.07777010488867445,0.013039934335250549,,-0.019290425909580553,-0.0002665109599097699,0.002741390266481124,0.19141955811265696,0.07422624946170193,0.10547214301548928,-0.017255761408996772,0.04191660397715472,0.025541769079766942,0.0718655454281097,0.11195059122315663,-0.07457810539750463,0.04568425251918792,0.06621087464237561,0.019878791146768836,0.06150394368304343,-0.05605088638743928,0.1448601416741958,0.13161113543395755,0.040726424574260275,
GAD1,-0.006663414056303195,-0.10490063731804838,0.07416751347082344,0.0029189826505402645,0.03646731933759751,0.04332317572181719,-0.06176130858331579,0.002208961130963991,-0.20317403635646222,0.0014975906934082373,-0.049662339499622114,-0.1343765247048056,0.04715699584098488,-0.03500113605294854,0.022556482905239105,0.03918031137242408,0.014683902596339815,0.12958393622731945,0.03944354849649245,0.04106586873180491,0.09009469631106316,0.008867517502937525,0.0542452831697486,0.14683815149305818,-0.08346143734383446,0.03583846785963348
COL14A1,0.0057073912227477075,-0.019679593918522784,0.01826133922109918,-0.017203204911679815,0.11750219502759969,0.016603972506164837,0.07526113640975167,-0.01775183624841228,0.12585656991758087,0.020069277018535,-0.02541247877693323,0.05590133201365976,0.10485769106723021,0.05700886765200675,0.024954205175780637,0.045706486482471886,-0.00942397148494779,0.11236659699422272,0.1430645456979662,0.017251292715362146,0.03848111464637423,0.08381527917422703,,0.1865074243029552,0.06290913318859792,
HLA-A,-0.04204347336105979,0.21591080664417003,0.12830107229826065,-0.03175009156568102,0.039664226187074665,-0.08056780729016474,0.03248587631879369,0.01610160305528987,0.3746498427461566,0.07693727965653704,0.019202808865323977,0.17870921095737358,0.009090780913324768,0.06342810249100317,0.050199190297418865,0.1810025678275596,-0.00021959363383557693,0.09533558783554155,0.13292603235888187,0.04360882712062669,0.1617178949560215,0.12028637754706918,0.2004304035193355,-0.038085358685132235,0.05473367054920364,-0.05751081285252035
CD5L,0.031765056340408736,,0.05807883508937463,0.023419337957477134,,,,,,,,-0.012352568601816674,,,,,,0.014217686323913606,,,,,,,,
FGF18,,,-0.027076608557384852,,-0.0028488527035524652,-0.020514427657182973,-0.04351532060875296,0.07318055266591829,,-0.009121392481289509,,,-0.04676588384630556,,,,,,0.049131761164707265,0.01412341461550043,,0.012582564203154442,,0.08265790019436231,-0.02766761482504784,
ADM,0.010850723891460317,0.007614667873497067,-0.07919115053956624,-0.009206232094132094,-0.1378198352790538,-0.08957714213924034,-0.12758004852929142,0.02292510679937882,0.22033135715760901,-0.13898125213019968,0.03939793630337797,0.09007865852265028,-0.1046570177662216,-0.019320255887407736,0.04357062767928622,-0.058783871399649516,0.11049972919501339,0.1405690043619858,-0.0037371188402602114,-0.0310913377368346,0.08528959202431784,0.06911645663380482,-0.01267237443823885,0.11005148507524395,0.09994758145034678,-0.0506021677515348
CCL15,,,0.11207275070417481,,,,,,,,0.05555156184748854,,,,0.07185407407576981,,,,,,,,,0.005263346378450797,,
GNAI2,-0.011159408264273706,0.11728911701475583,0.14594439806862458,-0.0006438980011477574,0.013878754741890011,0.04401625755692964,0.11810407839681508,0.04347947898711672,0.31233206427208343,0.060545244637945236,0.014912464585098258,0.13530662439010233,-0.0679521131322092,0.0874853906991233,0.046323797037295715,0.06496221343468944,-0.10350039738136158,0.15186770399451105,-0.025974614663634637,0.029424486625879348,-0.014632235952907264,0.10064585346197481,0.0495901733022301,-0.0011745635841740975,0.126392059111786,0.09146788053183376
HDC,,,,,,,,,0.21281218462508972,,-0.013504319660550804,,,,,,0.012946429532602952,,,,,,,0.16018863301065595,0.08009729912274399,
COL11A1,-0.03917814220014952,,0.06456662818183474,-0.00042955387738651847,0.058427442117707354,0.06301991675526197,0.015303801206994498,0.0745831462911442,-0.032560427415165384,0.007545311808251793,0.026928451321723605,-0.014054544841311353,-0.0020146463980346605,0.004000380943494537,0.0936070539380769,-0.07305758602431481,,0.1040847704055786,0.13553707551625535,0.15041484392030743,0.0789500278811257,0.12930892848178238,,0.048573777638205154,0.15642542255111386,0.042950588540659966
NUCB2,0.05307709244950206,-0.022915840366119204,-0.03958248875741511,0.013521107695537144,-0.08221350320414816,-0.04493486497263354,-0.09349481529033897,-0.005593674849276386,0.09888063375863418,-0.007160553809755026,0.0383552319847169,-0.022666992697552228,0.006753557930530321,0.002838854847851295,0.060349452426350085,0.06363957382326658,-0.006391961508961484,0.05068907674873091,-0.009793837527001595,-0.0164286108800898,-0.03785611940336943,0.044051689817044055,0.06479478280313315,0.0010764924271103298,-0.07832953724814894,0.02906210877866399
FGF16,,,,,,,,,,,,,,,,,,,,,,,,,0.059066038242720734,
CXCL1,,0.017892626557766377,-0.040640857168933814,0.011594848620684908,-0.013463758105774676,0.004856541428715875,0.0600033175006409,,0.07882885320402212,0.03319143103477869,0.012878093466877896,0.11276643103580063,0.17626522061556624,0.020114994295340718,0.05789083226378969,0.01290271510958403,0.004509613858512706,,0.0742874385932385,0.05610199253358961,0.00917687173616665,0.02332039445814941,0.08409068533294556,0.07343840132448042,0.03567784794407217,-0.056600800610036514
VCAN,0.0546714410618954,-0.02427264334452797,0.0008387320963826523,0.032323534904500476,0.13239267282710987,0.07287339918525111,0.0826927472531089,0.061739726461782836,0.24367771381465161,0.08854730651481209,0.04095717261329155,0.018454181378141567,0.07814613592524731,0.04716281345009632,-0.012016272625552995,0.010913771733839606,-0.0767613424287505,-0.08091579034329789,-0.0828734773622053,-0.023984224102679794,-0.10699030450297119,0.09917275872836243,0.0344836913202514,-0.14481943967159264,0.12387406139023843,-0.03787052151527692
MMP7,,-0.10534587908730289,0.14169982345875162,,,-0.02996280679224195,,-0.0280164745990705,0.08603405677321006,0.06190597616492314,0.023713868534863573,0.021146765148526096,0.08536811280287465,-0.034106779043875914,0.07164472547814298,0.05283946396535995,,,0.1868805526631469,0.061862117277392006,,0.03492524786373287,,-0.12581034956820372,0.0855979479755552,
PTPN6,0.009629089292143315,-0.05944190894113649,0.12808783633502058,0.03952864558735933,0.13857392457561796,-0.0029262260573619326,0.06195819008092453,0.05316991515474452,0.1827177278274071,0.0290885516848333,0.02845873989830054,0.05422145086830675,0.11473874685094214,0.06755181881108444,0.07039813130044074,0.05005807299435495,0.010516647890958724,0.10850142501489429,0.0805112611808859,0.10816164289970545,-0.02957949553514016,0.09143860227130544,-0.0019248013613692454,0.12514617410896087,0.14734032008276632,-0.13042442759923514
PTGS2,-0.009974217077459505,0.04115412220844122,0.01351639807256727,-0.027925012964079246,-0.099689195705116,-0.03077360676187308,-0.042811653260121256,0.08252450652062274,-0.22548459491518058,-0.04227416883606942,0.04541011436710576,0.07039568111156008,0.12148509831026762,-0.025070968773246168,0.011683631495926614,0.0056742771673236,-0.020987511952400048,-0.0005674741615838377,0.04866378020737602,-0.03237208331792194,-0.059540369149393015,0.04160629618096536,-0.045359572408662584,0.08989776403807136,0.03188249805040296,0.05993524572958235
XCL1,-0.043909328498513894,,0.04034841173781745,,,0.020892419456590854,0.024147476540797016,,,0.02845975677550776,,0.06726416243607723,0.06473505146043798,,,,,,,,,,,,-0.01948153322535458,
CD58,0.028196621457468755,0.1115249347646687,0.165996918125958,0.06266632704584695,0.07535726213267217,0.004669330214380168,0.007386963743112215,-0.01168390664039485,0.29451498830980727,-0.013109889786823741,0.07631834049042217,0.06610177279231666,0.06853288706464968,0.06260368954865253,0.06875340015073593,0.10192490898995339,-0.059115450993579725,0.1425990941208518,0.15502986177684347,0.10934029629082342,0.08022598401038271,0.03233842581506874,0.06437516926831914,0.13413968444643096,0.15889845884246226,-0.06342006932952428
TNFSF14,-0.00872561320760888,0.04286006275632354,0.004749463190212727,0.0011948716196500567,0.07535092499338268,-0.0024364168006661183,0.054107299103046624,,0.09829698092439675,0.020984771575117706,0.050334846669523696,0.15033222716680011,,,0.04424698649335456,-0.020295506932577496,,0.09564819665625662,0.026342332162892584,0.03352534175407808,-0.0008294291550517828,-0.022718852244416103,0.15026048813917675,0.009961891097693985,0.04653240827735398,-0.041587276188779644
CNTN4,,-0.08044222513338072,0.050497528756094825,0.07206576364547984,0.00556072757526522,0.026692776718988103,-0.0745291542976411,-0.01870685926184685,-0.1283945681991341,0.012574520612092636,0.01770879946564515,-0.041310840621796956,,0.004719949787185641,0.04224811603309043,,,0.038054336206212444,-0.023393184915884303,0.0038382479721471726,-0.02994082072986875,-0.017607228418480555,-0.0413085338461924,0.0419101781507013,-0.020066744720701316,0.041249318341215556
NTF4,,,,,,-0.019480855270664028,,,,,,,,,,,,,,,,,,,,
INSL3,,,0.06741501973226958,,,-0.026775590690715743,,,,0.04027649942752997,,,,,,,,,-0.034778858730588814,0.004432379095837737,,-0.01594591412037795,,0.02840707611452823,,
BTLA,,,,,,-0.008063428196412767,0.0021176854164011755,,,,0.023488962260532757,,,,,,,0.016698830668413902,,,,,,0.0012433406203489449,,
MFNG,0.03184233498213635,-0.015792195576612125,0.2017532197880408,0.03605171604107853,0.14036686092132697,0.055127892584313276,0.05823885081164358,0.06171899067070375,0.26859806971333416,0.07899437625747392,0.0771758749351043,0.014174473362242585,0.09137906656726265,0.03769785900535096,0.012445243897743397,-0.004239039823554935,-0.06343225269558739,0.06111587286972804,0.08440333851579199,0.18153671342536692,0.014145975310358843,-0.01760623101027746,0.11467495567164211,0.12752157003437958,0.028988011615985198,0.030148871659738914
ICAM1,0.06107184190357894,0.03923930080187271,0.08890315307804925,-0.05310772025413335,-0.11702724202725456,-0.0028395137333776196,-0.0413192249940743,0.04590806221918123,0.2532384288752153,0.07219841738010754,0.010340275694952432,0.07679806475363835,0.09773264352600808,0.03157754132864009,0.12109780113906539,-0.0010574305834650383,-0.025278697989640084,0.09640040145969221,0.06854419097707928,0.0864280604404432,0.12245825166664913,0.04345930329832827,-0.08424834439503698,0.22396002116483585,0.13827554637946798,0.033470391341822205
PROS1,0.03719432690574862,0.0381724709691188,0.17633884418761592,0.042981823133929405,0.025147257746605946,-0.026510230497442333,0.04243186938715956,-0.017011673502052904,0.2857426239783412,-0.055036328595862036,0.03125554169347292,0.025011021719693924,0.12778804054691129,0.030256559518933048,0.14032401561075283,0.07523347439084323,0.031702122892519446,0.12352113705271191,0.1382343938157823,0.02627021520743534,0.16561581259977803,0.10106824739146826,0.06512385438734308,0.13529697711374641,0.1378480107641258,-0.0217086338983337
CLCF1,0.016629485335665124,0.028881594496075136,0.16698680652623657,0.04834807890407784,-0.029600852814186396,0.010513880489767997,0.08496354767742065,-0.01151804674436858,0.11552783953605995,0.01684432859880702,-0.0016882924611220916,0.08056961990708536,0.100221844407672,0.021645165742349187,0.05785628550966782,0.04245265944148978,-0.04076631189168568,0.056618995562750137,0.08060735075896333,0.08785583626551499,0.07300660576687118,0.06188713935605386,-0.03911452054497571,0.09419993946320768,0.17232349339581832,
PSAP,-0.02575995894601409,0.011763910157122456,0.22872106722339547,-0.04449145370424107,0.15050409537883513,-0.0002992224614230311,-0.018289722162393045,0.004863775466495081,-0.19956075683449473,0.05203227696724355,0.019920263364877486,0.0682561286345318,-0.18352097380641064,0.007066642296206261,0.1395279921421047,0.1988100636452165,0.09400571920350999,0.10651472967243981,0.1709896495804616,0.15815161268942374,0.11041219505871488,0.1443608182634395,0.08371361770041755,0.14121278702679116,0.01264145517969272,0.0439779439278199
EFEMP1,0.11131748662810254,-0.00020241398865941074,0.22486197637019778,0.02478479065462256,0.03640423628562111,0.012720575460990176,0.11392253386538777,0.09255225681698954,0.24087551815920893,0.19347635474284536,0.09240234950099012,0.14117321888427664,0.043132021984161405,0.0567717721359413,0.11386849273464782,0.027582053381276252,0.0037319417471661513,0.14088018209664516,0.16447355335679448,0.10687907969888326,0.11691488001306599,0.07454380700495417,0.06399457475419483,-0.06358979184813736,0.20285518113521214,0.04726633748545569
C1QTNF1,0.021033069801682503,0.14177685431105644,0.07562563724520047,0.02684696045041111,-0.016551235088446154,0.0655993921280684,-0.04098829355450111,0.010190931110073112,0.32478367691825344,0.03655672423709553,-0.002488205237132597,-0.03153904414982045,0.15062639164230127,0.014285341509087722,0.03858063687104751,0.041404985465428756,0.07307444233513558,0.021143278929607937,0.20926833587624058,0.09873638670874124,0.1240506597799582,0.1257119923616804,0.08675637299103435,0.05012021519921741,0.17167224392923783,0.013392275561128741
ALB,0.010398424057956318,-0.036818850294945235,0.10380820325283643,0.026379857277816134,,-0.04832236402630494,0.0885370968899642,-0.0334331353743199,-0.060412327013831424,0.06021479396154933,0.024849524914327882,0.048423531924211616,-0.00034792146620521083,-0.03033205573740177,-0.0234608703076904,-0.01804416011597519,0.03868960983363376,0.013857124035039763,0.05101147390581927,0.03478688670714299,-0.049313693466675614,-0.046900750415794286,0.08115114514531456,0.05039335362607056,0.049875999255014083,0.02015558709721797
CCL13,,,,,,,,,,,,,0.1480348487671374,,,,,,-0.0041591771516424295,,,0.031154633682791113,,,,
EFNA3,0.026986098248607166,-0.03595302480939691,-0.01636111680934083,0.06432368615543226,-0.07391216669933726,-0.033809964968683395,-0.0414775482859676,0.030218190921845613,-0.230169308585068,0.0030859991756681925,-0.0034515382957948726,-0.03781501998885318,-0.039582797455294694,0.056197736265880156,-0.00023191511278126774,-0.040354625440805196,0.15660813856949002,0.05521914597309946,0.104800593001224,0.14263489848086872,-0.04915199675665204,0.03750694281508703,-0.05379517675181675,0.17505634512546175,0.05107073293322918,0.0779367093298426
DRAXIN,-0.004342562355959602,0.08033899315961145,-0.03898179523558123,0.07299202003205052,-0.038215539939167306,-0.009713548803861433,0.0030076359879349563,0.10036058633775917,0.2249092457989552,-0.029876591777057742,0.03125417545040647,0.07313259629679779,0.11122926840572854,0.019443349086314128,0.07913727085418085,0.012662219603263164,0.06256236824055224,0.18601709208965223,0.0979024554516802,0.05418331975790331,0.07157786356860217,0.06463706794504993,-0.007855629964180369,0.1369092606436407,0.16122364392133473,0.014388298361311481
RAET1L,,,0.08372509065457319,,,,,,,,-0.0031156585743214917,,,,,,,,,-0.03289598922883795,,-0.010302349784151421,,,,
NPTX2,0.052423001030833395,-0.003903921055902925,0.06721772724339233,-0.01611794250899599,0.06174804321265457,-0.040316509452152004,0.0037766140716582325,-0.05423569456121865,-0.30403129091604647,0.020231636804412676,-0.031865459543813465,0.11560146855961724,0.0852826573949804,0.03039658470085948,0.0656062129435181,0.10836695249878778,,0.06276218090779151,0.11678066370928483,0.15338393706916403,0.09448694547840863,0.0635077510757673,-0.04029230709476402,0.018622611639892865,0.09180447964116885,0.035730875938895706
FGF11,0.02219858800427961,0.09960113529986056,-0.03142387033314941,0.05426338499959119,-0.011660913146117259,-0.01330978739891306,-0.03954268012145968,0.05725101366349283,0.24505907806465116,-0.013122830971697062,0.048222590969404885,0.05899326133380906,0.04263392627391163,0.008320197736642757,0.007627670245460345,-0.07178725874202627,0.07547677953379309,0.1121401123011718,0.0716322737356127,0.05763950982457048,0.10835321523851271,0.08684386996578185,-0.02795262655437257,0.20406202584256505,0.11498307448160544,0.08480687288807845
CD59,-0.007329219063709877,0.02322948239453809,0.16339303202663977,-0.005510030036130479,0.10240362903163559,0.06368457153573835,0.05159023758479048,-0.003918250483769583,-0.1498721665769187,0.10947845633965883,-0.03551743953748207,0.11039086514577988,0.1523432512208427,0.039048834226582244,0.1271585944719864,0.11288419855966295,-0.054703257304863556,0.13926580775492944,0.11187697448589148,0.10373094259894264,0.07346178925559747,0.08027382350256725,0.05037283075314453,-0.03790996557910577,0.030523461179682368,0.021471366458260817
COL9A2,0.07133115698027781,0.10336120461151947,0.07750411121868765,-0.00614253957657507,0.15162576725572097,0.06119244951679148,0.06525242627327803,0.04119616211906874,0.12947514536684018,0.05598569446190213,0.055586258744826436,0.0051633684761492145,0.11841717206641977,0.05485463153325143,0.12129869571609689,0.012392987448517674,-0.06724065617833658,0.03912484140923999,-0.05558029660373732,0.04244779072726608,0.050236526494760014,0.01569149795102616,0.048655646922173515,0.23724509326828566,0.10897051170238958,-0.04959923579318743
DLL3,-0.021019873487832658,0.040387121346978146,-0.06460061533497873,-0.011671104268868415,0.14732411172535484,0.10450464762335412,-0.06223164931455994,0.00010642194400683104,0.14034905328763525,0.030817519100317225,-0.024986274519969036,-0.06545621708067503,0.06354607399230491,-0.04774456249102857,-0.08121974455286858,0.0026843100062052543,0.0027550565388314457,-0.027465229239127486,-0.0831682703948435,0.04352192334453281,-0.04319704677641388,-0.06818548611965816,0.03440435299874599,0.16837180117311118,0.0904839265695499,0.0002832609866981209
FGF5,,,,,,,,,-0.05085811080035654,,,-0.007547694759822523,-0.03177278456034483,,,,,,,,,,,0.07007362952028684,0.09816370300969762,
LIN7C,-0.019343206842082492,0.049629776446993804,0.03419866440075237,0.042321524418069134,0.16557861323254036,-0.01385322336379892,-0.04584690021399276,0.037506104051633446,0.12443910801164608,0.04851919719353384,0.013932392408350295,-0.07985037507575708,0.02337369757866821,0.0024845300823348898,0.05325112510962063,0.016801076467651305,-0.06484074757167181,0.08693644966941365,-0.025711865478783912,0.00606452468614226,0.02040576529159571,-0.0408548999648354,0.05479534567348815,0.13351491842839275,0.002764676455381938,0.03836833409000539
GDF7,0.022217103312566794,0.048204876339605573,-0.02315335890031181,-0.042348303123943755,,0.01846895898047379,,-0.009278557444793877,0.1070740604330065,0.029386013382260528,-0.009350238637881328,-0.013510142194881565,,,,,,0.017772188324931056,,0.01549308021674349,-0.014327118156798522,-0.01779203143560268,,0.06096438721242746,-0.00732182001092257,
PSPN,0.005984225380292332,0.10434182346447274,0.03130722115361158,0.030424715300434918,0.004378488449120634,0.005618873922049953,-0.0006469930076570012,-0.0012538647936351935,0.06072505959831246,0.020398938129746545,0.04895103518462491,0.002229632695842435,0.06207822644285775,0.009529217153142113,0.04209013166322905,-0.04069976683266087,-0.034085523569373756,0.14240407865727492,0.03399980787559388,0.11252867469551825,0.031347689450246116,0.010910736417675683,-0.010575377829097048,0.2524332713105942,0.1227430544812798,0.06073143426836645
ANGPT1,0.031111984628168183,-0.004998986779140465,0.12483283279181777,0.022318292162819723,0.07583635160696595,0.028363201209552193,0.06771123544040543,0.06142732657173938,0.21594014081198065,0.05969970340431192,-0.03483980208507189,0.07165523644436407,0.14769619483388996,-0.03710614419510561,0.07441302630627103,0.05102805759703381,-0.02991132916475947,0.037488957765678864,0.0011322958897415905,0.07363970350224792,0.10002669899153506,0.01510154825874984,0.061761133456069386,0.17831650303689553,-0.026645775620804536,-0.021836646535809006
PNOC,-0.015935841688153023,-0.04126340467780107,0.05573832538998529,-0.08018334323770743,0.0435502479854184,0.07739052203987346,-0.01677157887421558,-0.015146921433403421,-0.24802858605612724,-0.017266652339789957,-0.025947415593532683,-0.03433610183996643,-0.05110297121658499,-0.028040928357930716,,,,,,-0.04364362285358257,,-0.020022826119155786,-0.05594641890895352,0.07070702513758578,-0.014233248042504514,0.09909097622727861
L1CAM,0.02531098517772142,-0.11723761111404062,-0.008645145372078682,0.001820380884379045,0.03493504960073686,0.07999062991780001,-0.02487010056765266,0.00791177023267503,-0.18867524597543686,0.037506813520680075,-0.0457615589128195,-0.05273489975059953,0.03685746150616046,-0.08443663425379644,0.01919642301764557,-0.044446057667223905,-0.028675419372692433,0.08453350209730963,0.21247967628982403,0.06893904321558278,-0.027845964333889636,0.10008360656896258,0.041007295630894516,0.03238844042846322,-0.07093398166149582,0.02139913760987067
APOA1,0.1250272193510896,-0.04005812901090506,0.008323306513692659,0.06752846815463705,0.01792663494869481,-0.021449254004171168,-0.02976278884879472,0.009987514676629143,0.13284157354636222,0.008347064223828214,0.03305369063231462,-0.043004886323920036,-0.0012188244425134311,0.0928182015924592,-0.0238927557774373,-0.07425253369248229,-0.040493116383790675,0.11684207015447098,0.06861695358639579,0.08488105937339586,0.07644761950999218,0.01744191988378642,,0.15373416417256353,0.12318695706310222,0.04703950435454134
PSEN1,0.01869963685986892,0.045013441162812466,0.10974138873702258,0.050563912527602374,0.01358441687425803,0.03764992428988474,0.027488518653046988,0.005262804763211388,0.056757998288406414,0.0037401123154109147,0.06823883909348531,0.05830762133204484,0.03252275642051407,0.006330813052217557,0.07210885395627685,0.09343023561086689,-0.09618032589993689,-0.07527187023375949,0.014324254586406477,0.11105619744057979,-0.09244355248491526,0.012304187835497185,0.10610762145301444,0.041088891021235745,0.10636395233608902,0.048295271624246995
CALM2,0.033289343719442956,-0.015879932045240814,0.0761844164345663,0.0027426658437685546,0.07259170098242375,0.0506833174063735,0.002839403225583167,0.0012782867434116844,-0.41203460641780254,-0.004690147591767932,-0.0717255842464831,-0.19822550463545754,0.18170370998920307,-0.017265048243066978,-0.006702375765005185,-0.02629057129724763,-0.20791246101553437,-0.05317717765653756,0.15981019950955722,0.11623714063503843,-0.002601122716387132,-0.025755898625724263,0.07543386756952593,0.17632337811179005,-0.07174156845651264,0.1015675911723755
CLEC2B,0.00047551593367082905,0.012002710182484496,0.14090218073498406,-0.038899408624828054,-0.11666454908260307,0.02215303083786581,0.001916982225808216,0.05836859703382082,0.33947475970751123,0.024978243757913212,-0.010962700509101125,0.06257984594335896,-0.06395228625885196,-0.01235220304243288,0.07778669306719077,-0.002386020867368097,0.0479852320009147,-0.01919132092071022,0.09026860123588608,0.055019827832982364,0.0983887646990245,0.1105805474302387,-0.03275257164718747,0.1887241759926606,0.019976647257897877,-0.049025135426272445
NTNG1,0.043018010621026864,-0.09042542516235157,0.03525832048258584,-0.02646818574221742,,0.008133121921518818,0.0162265918268034,0.030519608480950904,0.04056656821249685,0.07231849121555588,-0.004113349982635182,0.012965184258164605,0.14019721412021396,-0.028299315506534292,0.15992842894508708,0.08533021579017305,-0.04956318561269718,0.019046026928258714,0.046637744185814047,0.07820419670103579,0.04759108698455441,0.002242912564734934,0.03693958052260457,0.20529288521499955,0.09503808744497441,-0.027253179846777525
LRIG1,0.08609391706465704,0.10066012206078076,0.07342648012418355,0.00930591813658944,0.188913750894721,0.057090004825711554,0.13437909639891438,-0.040112263130669436,0.20840274034624895,-0.02433487202186954,0.07583207674357088,0.07412869980035605,-0.1665964414976239,0.08185756342121757,-0.03012707500639648,0.02140425979525778,-0.07134261355980584,0.12108526132968979,-0.04143296532424858,0.022437985623031186,0.1703540832307379,-0.11936005424527649,0.07108182560427274,0.13974879139132818,0.09627758783306971,0.06273479009719936
CPAMD8,-0.048218727149242836,,0.03806736374300049,,,-0.02167640419266993,-0.007370546256877673,0.09439102787182796,-0.01042815757501001,0.0392629105656591,0.006896376901822853,0.005830780929016693,,-0.037232781225133425,-0.05089094384090737,,0.07131491361621002,0.07826999742460944,,0.030293981328639287,-0.06987059312358451,,0.0043100358277480275,0.012855531178886284,-0.06815381630517084,0.0995000644273092
GHRL,-0.014033132756736845,,0.06649601676497405,0.0038603309408529207,,0.05952262467419576,-0.04309655563553534,0.05915354548500143,-0.01806449017030057,0.021033514828117005,0.006794724755112052,-0.018095913759500173,,0.07554153644662878,0.05216931340909874,0.016617575455811894,0.0173952296335454,0.10392412638980227,,,0.036656436755727224,-0.020675835128572673,,0.051969449871324444,-0.04103123440444914,
NPY,0.03390103418540584,-0.0424600475424143,0.0572844169191907,0.0880740540580313,0.05248336274882622,0.0187844614602396,-0.058875098886599316,-0.058745694120771866,-0.18395984374740035,0.029967079625311695,0.06363786221826505,-0.12113629235987915,,-0.031097419394735256,-0.06358372643779163,0.04725254767399712,,-0.06988390455940956,0.16155364705018666,0.09351773759735765,0.024382175856365443,-0.0437628108808303,0.004864748142284226,-0.028158639784263282,-0.051272809836765056,0.08577854595392946
MMP2,-0.0553811264002831,0.08223176551858039,0.191525800617186,0.006154926968590357,0.10004769176283876,0.049490319150427176,0.07995297257145874,0.0478463320176431,0.3379410008291301,0.05530829113004957,-0.007877503308487783,0.1086351308694655,-0.22579694433638434,0.09888136722562692,0.12946716448514267,0.03678012411871317,-0.045902133624375,0.08179535281350395,0.1258102107393605,0.08592106132368424,0.1507320034916856,0.11542950051508927,0.014761969222570032,0.035075128122114566,0.23438861954878484,0.07681776537370547
LHB,,,,,,0.05501102803961456,,,,,,,,,,,,,,,,,,,,
PPY,,,0.07718032512388284,,,-0.028512838901685565,,,,0.008856878150349022,,,0.03717118652535814,,,,,,0.10251618066528201,0.1488532388761042,,0.04071793435674524,,0.1645392861513743,0.05061590526151416,
ALKAL2,0.13530946377947994,0.027165580504218235,-0.014748768991958913,-0.033991451613586035,,0.0518934171986172,,-0.04891614203144667,-0.006299447916858127,-0.038200045929319686,0.02433112195763537,0.0374878863734933,-0.08080142011649588,-0.008661952493790622,-0.0024799667952331104,0.1032755151031201,,0.0460424323985405,0.043719974732425726,0.10108252659447382,0.02514535222932901,0.024975304518367162,,0.04233670728428587,0.051918691726512305,0.0494242835639881
CSF1,-0.01275609247676832,0.01251240129164454,0.17196288260214737,0.04834089285619506,0.06926040443971662,-0.02394793238081075,0.09195095280510625,-0.035495428903474346,0.19973079689379622,0.07409975480738601,-0.03655426965341204,0.04115554682943917,0.17443702046822307,0.036956726399641746,0.1290396879111829,0.020462493306671825,-0.0005802053678534043,0.03475107313961717,0.1800931822900451,0.12588415881650647,0.13129219919157506,0.10887840128339442,0.02714186885361467,0.16654351955247346,0.1696829022868542,0.00902587225046537
SEMA4C,0.015204952778946939,0.022682447612018656,0.10068707986336203,0.026639144531401364,0.10168165595614265,0.04823673138116488,-0.00037948901501206044,0.07840330811336199,0.10394084366475097,-0.009617931046326935,0.04474024232870949,-0.045555080197863654,0.06579616918964976,0.08225647080703058,0.03599062265255473,0.15688629924525532,0.07465996733695945,0.09939501913573645,0.06878422245987989,0.11741339968694162,0.09314666703578287,0.06912660086361015,0.03334154960441246,0.15703476125839042,0.1513494957721726,0.011881813489727142
BMP8A,,,,,,,,,,,,,,,,,,,,,,,,0.039620991839670966,,
ICAM2,0.05993719691389085,-0.07280187924401685,0.09694007776544432,-0.0019279829137239897,0.10425314057967608,-0.01942114065947194,0.0004988571331196011,0.03706807106163874,0.19313666363578508,0.02448587362999168,0.04978019577561856,-0.045335594699472445,0.09404105943469884,-0.005885149166351711,0.06711241287214104,0.05376736471106085,0.11426311694738973,0.13632412270598362,0.045613219487412975,0.08174784803243405,0.029419723952502495,0.03146810605696379,0.08666581110787928,0.09586920108750702,0.047977664993866104,-0.08753203958235385
SYTL3,-0.018637273967559573,-0.0865750085963914,-0.007841684131683103,0.05559071121133725,0.00823242927212382,-0.037400122754737884,0.019651531730628783,0.060501223923821186,0.12725648110308369,0.03938991059662596,0.022030409853591303,0.04344584000735563,-0.03211178546265904,0.007249571786700553,0.05907184666551984,-0.027032370993841454,-0.016904721026628884,0.09731739487664263,-0.022393865323916837,0.06641169014992741,0.10123321831656035,0.009717299487445001,0.04227233303207972,0.1283161409095625,-0.010867807684471814,
IL1A,-0.03654153097711333,0.053965948196288784,0.08660929193637959,-0.005490522273938776,-0.07123630592716784,0.004578748010195023,0.03205979275096148,-0.008194346378806184,0.1470349249245995,0.10869477252125191,0.04391375977416334,-0.03846911333851745,,0.028413957827248426,0.07160655406482977,-0.06304499364323565,-0.03120475286866389,0.018810314409777037,-0.02546205195779201,0.04910009021588105,0.06633776178181379,0.04572374019849299,-0.06124270012567476,0.10717126935592645,0.06634576959322029,-0.04316512727661282
HLA-G,,0.04919982170826931,-0.07500759278289992,,,-0.05524314336353635,,-0.013630020672352037,,,,,,,,0.0637633328348565,-0.038380411465903805,,0.0625290910262976,0.027766493740286134,,-0.04892818078678745,,,,
PGF,0.028155689778457598,-0.017580105494531217,0.10380240260400232,0.012904518527820511,-0.08621784642452077,0.02256646467223156,0.01949784555584519,0.0523436767425958,0.33733472968979866,0.002581345015391555,0.013400100447012956,0.035795622436782304,0.11851659842721622,0.016541036566519566,0.11391749813126122,0.046016260358241995,0.03063891674586279,0.2218835440988075,0.0370572247862224,0.06654179125294656,0.08567069722913491,0.0697408564748161,0.05421121486422851,0.048442296642132,0.032037217961488215,0.10371798938841767
LGALS8,0.04912298283795054,0.042558400619467085,0.08779781377257316,-0.002262581407481201,0.09030194531620338,0.004796057653249012,-0.03250182422685479,0.03617165038644738,0.09313391202692052,0.006860056946362143,0.010930785062328894,-0.03826551288302566,0.05076407771638021,0.02840999543261294,0.049331117459902415,-0.13199166934545545,-0.03094776109432349,0.07497289296538649,0.051579540860650336,0.06186506514814681,-0.020266015997043606,-0.01829999068295064,0.09261414372493537,0.08968476924208767,0.01894772316566289,-0.08983249539913292
DKK3,-0.018763215979813987,-0.0059057556583750155,0.11535819227011902,-0.05089914082565443,0.11217126455453866,0.060042097283346786,-0.0008709493826927592,-0.03151619988281192,-0.2592834725107367,-0.09849555796039368,-0.0849027021986976,-0.22085329193864914,0.10199751652830392,-0.020848477747157115,-0.031505471740305414,-0.017665194012943163,-0.086824279833978,0.041418403604513924,0.0858392547556341,0.013421268231794571,0.07857490415422488,-0.05336654748469586,0.11559494638304253,0.13191332603882547,-0.14303193301516573,-0.03735632783026728
COL16A1,0.015583859912087446,0.13346752129094105,0.10074401716380448,-0.01939828876882322,0.1710179669390181,0.10757357918296057,0.06513261944431936,0.031086958697208483,0.11900880205823064,0.06623231087377852,0.05784908123480269,0.0009265513818340063,0.09468746130097462,0.04862321475895506,-0.045748670854402124,-0.031511081440237704,0.04711910421481275,0.08448720265224145,0.056660459172286994,0.15552631878307618,0.09877476220168568,0.04559198391431973,0.029136277838864806,0.208839045333056,0.21338158671819868,0.05432621709146837
TPH1,0.026258251911785293,0.0445504969772828,0.01439610665333678,,0.08941835097655508,0.03320915434526225,0.0479655072789436,-0.007543587101341769,0.0616908130435464,-0.0025062699380332277,,,,-0.014888543883140884,,0.0991587044018356,0.004519134250491013,,0.02714813094031163,-0.026329674205426604,0.05876449295369563,0.004071120408793302,,0.11410707726005584,0.10536540991935839,-0.049101216253368815
TNC,0.05658983500959219,-0.023323870961114684,0.16935264019901394,0.03709600133661175,-0.021305333010151098,-0.034504829635100896,0.027871862976520417,0.03278180308707757,0.3701790135952701,-0.06244042561289347,0.021006403344378397,0.0873384956495111,-0.18700847447975297,0.06970317894416596,0.11203800822271448,-0.021474149483670813,-0.01585006657893023,0.1960978502299313,0.19165661671221718,0.0644370801347778,0.16417621308442099,0.19827928471234463,0.013670771915876513,-0.03765290497253022,0.12965691375187463,-0.08499885301727526
TNFSF9,-0.01065792189914092,-0.062144046221688724,0.018184017336490638,-0.033858737065308425,-0.010233082461629434,-0.007166328984895227,-0.02897558533465183,-0.02821118227359772,-0.06893263054613288,-0.016909853220040308,-0.038665295210637336,-0.011097812384302618,-0.03326402851499551,-0.017611181221274863,,,-0.0614185175590651,0.032768157878539345,0.014039797615756881,-0.04556680850760022,0.07200529303888602,-0.00797080642116206,0.05632458034096124,0.04623271880232098,0.003798395215078777,-0.08362715701865721
C4A,,,,-0.0034238900737487317,,0.0402376749027593,,,,-0.001557453885279979,,0.03479578407324603,0.0165532412206444,0.013900706355575556,,-0.007680416447772077,,,0.03549392625755837,,0.05085534896448731,0.018822401353097564,0.010567329245125882,0.06746788510887365,,
CNTN2,0.04595199207921264,-0.007826374291316775,0.04444353411052176,0.05556530942666358,0.11364698746596799,0.021042695608747844,0.056807442177344784,-0.019494232563127847,-0.08520790144682155,0.025092114959139638,-0.026899786246983536,0.10248786997792382,0.035539400401730516,0.013483460361624268,0.00011159627330849218,0.017623306656536882,-0.020053844721717687,-0.13003433709795878,-0.06482781050963375,0.013069010021379343,-0.1377129924369836,-0.09757670698356127,-0.015275585374263488,0.08745066612977384,-0.10635881007559995,0.06701029533245327
F7,,,-0.02127565831003229,,,,,-0.0006364211483915354,-0.04671741135269458,,,,0.016408602866309904,,,,,,-0.030075746068244334,,,-0.007935939832832525,,,-0.0024564389946576575,
LUM,-0.017952138572757594,0.09915256215772722,0.1797720001316221,0.04362611223827017,0.05506395842665086,0.04017241750727936,0.0827283105466495,0.03393048690862493,0.3913312961130318,-0.018187025946365506,0.01977260006478728,0.06975167464037499,-0.07678791086302106,0.0444883106916732,0.015562871533304892,0.032971309998645476,-0.08579711580031953,0.173383742289979,0.07728464505229335,0.08334869754517678,0.1706988086725425,0.13124479598851296,0.11237180319495914,-0.04981269088176903,0.11071757604041974,
IZUMO1,-0.04607449943005498,,,,,,,,,,,,,,,,,,,,,,,,,
BTC,,,0.020140735122848436,0.003966480234205854,,0.03572863722724063,0.10021789602913611,,,,0.004715056015627388,0.07056495036373128,,,,,-0.006942139322980847,,0.046188965047517246,0.001194510680113091,0.038255006107099074,-0.08589677200830416,,0.08024512277155779,0.08584440308189766,
APOC1,0.004247290713339579,-0.004832162552158246,0.1733454997247932,0.0006373636499114854,0.1739328410345338,0.11827665211812527,-0.10566126387897995,0.002458822926398242,0.44046397842601553,0.1272154846067806,0.02006404441865407,0.15967333455159094,0.19373844350976277,0.07164220464096552,0.25236761253105394,0.14592568623259805,-0.04088222905182957,0.09916520728715573,-0.002594594997547651,0.08095928433170625,0.09145136602760451,-0.04897136527434076,0.1973952258009635,0.13863073841429444,0.11850932817063758,-0.0343802140648975
PKM,0.08109666378581935,0.09131567749465373,-0.07394120476491367,-0.008790966277334115,-0.10862880268827718,-0.0715569842604428,-0.09647287338842389,0.011867218359079569,0.11707860673756172,-0.14314722254389833,-0.06547353706680567,-0.05219098142995638,0.015802401713952387,0.005638740867082395,-0.02854357669386635,-0.06536547541286816,0.13353805003417443,0.14154256674241783,0.11732685189278806,0.0059308255677793294,0.11475782948814138,0.07665846598113836,0.06691243350278857,0.03791044860151054,0.07985875871763538,0.12320063997673908
TNF,,-0.023164819336719,0.052156033841008545,-0.03723199407867701,,0.005726754305847187,-5.1081116113558826e-05,0.041261654340242496,0.08994947195593117,-0.029829570619424723,0.1004634540691171,0.11581567093990161,0.06059529855828943,0.06243910273670453,0.1391291964978668,0.03915979159525932,-0.02982673399178662,0.09322775725045919,0.06811524897986622,-0.06421254854658003,,,,0.17565558299309716,-0.0027390211638626846,-0.0493596994203444
GNAS,-0.0414481860235284,0.08682227952154316,-0.23933076585143617,-0.0032518763069987813,-0.08202085766182189,0.06179746043408176,-0.07903088449426313,-0.017230983575233668,-0.25970357874005284,-0.09526287120740315,-0.005425197558968011,-0.22122273257043346,-0.18504470020761016,0.01230877635014225,0.11623674794363466,-0.13398556833207015,-0.017067757866912267,-0.019917416864758543,-0.053370297724216226,-0.05556477604403815,0.08683798396801883,0.037632120701154084,-0.013481625291784854,0.04812414663872188,-0.04678847499064617,-0.012048962866564688
BMP8B,0.021974936868250892,0.015573384613060353,0.06599113040327641,-0.021949226601864217,-0.07865272673663229,-0.03074138261053039,0.007618573809305391,0.028769274840187074,0.05652979928668985,0.04715571348218554,-0.03212223248962518,0.06984081064813681,0.04267624407117674,0.0448305027169318,0.05006193779126228,0.09896541977165388,0.02572167129339376,0.0677161150434753,0.08295247423506141,0.04607681451140316,0.0681930309318142,0.11293618875682938,-0.00947580202505696,0.0069948488534053496,0.08223939323165387,0.05401621008487635
LIPH,,-0.0003365966249007386,0.005611020176077259,,-0.05293381538299316,-0.024337359891011486,,,,-0.0002304365713266638,,,,,,0.06303145613183116,,,-1.4260700377313114e-05,0.022266006288823,,0.05647185780726496,,0.14819885160904844,0.05403772313748016,
CCL28,,0.012699968449646293,-0.04717635002033546,,,,,0.03194936878693376,,0.07388086633622211,-0.007135093333606005,-0.07899759124898766,,-0.017038148209398595,,-0.024779533308176317,,,,,-0.016109654827511623,,,-0.01873293694612408,0.009363379196556647,
PTPN11,-0.04472211116950865,0.08759565273099712,0.019523753074476916,-0.007847455134926665,0.053100504879733876,0.02252708684456917,-0.08300996157742231,-0.00843822169869843,0.12103132220858467,0.053639947751019934,0.03561715084772775,0.020290933578671445,0.055513373540044264,0.0019197504530978895,0.0006676361308147424,-0.027711429887056216,0.09040733385094178,-0.051771405393943974,-0.05346287873801805,0.017539319893427024,-0.07778870073784598,-0.05159848970610473,0.10922650164661812,0.04832562834263146,-0.06609917030719363,-0.08462181693581054
ADAM12,0.023244830203835935,0.05515045807765347,0.14984798304528923,0.009331043196989068,0.024897013279120573,-0.03464614130450177,-0.014927010444780505,0.048527302369784385,0.2327453155514797,-0.016584162282425943,0.005417637879792491,-0.016936792097669535,-0.1007124882049423,0.03634724639577773,0.01692219280368803,0.023746868817869745,-0.01709089554162022,0.19215468017813112,0.0857304408763586,0.13679785445166606,0.12566199267773842,0.05234772592132688,0.15567678161589898,-0.053733031263173955,0.10872354610205615,
EPO,,0.02759094791749871,-0.02092206845911106,,,0.006759627274389596,-0.003770960407112225,,,-0.03797298744410152,,,0.015427861086886985,-0.04584256728878042,,,0.15522711221709024,-0.009931962474581908,0.04633177532405043,0.04982643911592043,,-0.0008404197299113663,,0.06828720219303601,,
EDN3,0.045091009128404844,0.03647419094539373,0.024897021154416676,0.08733536718002,-0.034743035834157755,0.003027035043303118,0.013192093565128892,0.0025478867655589327,0.030435826939651252,-0.029888989542829817,0.042447419321027954,-0.021318193564838318,,-0.014205545646992165,,,,-0.08133194611646298,0.12393827929510434,0.06791617258599508,0.04970231659313086,-0.004849455360149873,,0.05415468530370736,0.05820975416009376,0.18618464324588171
CCL22,,,,-0.042348302098462715,,,,,,0.028928812955648166,,,,,,,,,0.07998337321411036,0.008559820632013753,0.00015063377953489462,0.02869769430175777,-0.050137936130835156,-0.01888732231660767,,
CCL2,0.06636537138647,0.037597908764263985,0.2673200011289438,0.04281377563185368,-0.03939456939840526,-0.0009537258128749449,0.09847005259685279,0.017601095812459847,0.10312032252569318,0.13253414293228813,0.051856425299496044,0.14592409386291963,0.23353768867169727,0.0800566516676713,0.09269684566613301,-0.010267435567857136,-0.11508725187460013,0.11814753740172826,0.1503259705839189,0.0660120338478038,0.05199060088722197,0.08039617099790308,-0.19578962458895732,-0.046292812948320765,0.06990224787181772,-0.15742880619671937
DSCAM,0.03510662428465652,0.0648036944251809,0.03860809280214417,0.01044017551283488,0.10307761113516026,0.07964063178550751,0.008563881852785803,0.00038122341920494466,0.1429133837058762,0.01205736469894335,0.02140046685033799,-0.043110758855635006,0.16979308268691817,0.020227354718460527,0.05588170125237184,0.02127044850010299,-0.08051111488228427,0.007237950472031052,0.016680235616548095,0.08572313279598635,0.03875088108561188,-0.017041649059555963,0.013670146673480398,0.12883809670719917,0.22845555022300706,-0.023960329545102563
GPHA2,,,0.04716110981448518,,,,,,,,,,,,,,,,,,,,,,,
ANG,0.044529562387035475,-0.09044735788142409,-0.0012135474784178387,-0.047023653371251466,-0.06165545508237792,-0.08844995727812548,-0.03880897840406697,0.05343729430790547,0.18100718470388147,-0.01053316977487277,0.05145636852138478,0.019513678377827647,0.049353029002869774,0.030032134373083358,0.061522303551896924,0.06521401664377716,0.15841302075757263,0.19549909451168876,0.04477095898243268,0.05310499602012053,0.06366583202110407,0.008012038298704728,0.06169236696130195,0.1981228865400682,-0.005267040873951524,
FBLN2,0.0190202478633484,0.05200246327055912,0.04917247406040173,0.06605564281899735,-0.024471344312319177,0.03194740206737278,0.03485499462406343,0.05338617842468753,0.04463283787403588,0.03384909192403589,0.05088432571334661,0.05384920252595712,0.034833475860895975,-0.022165224860090975,0.01604638286297861,0.03132049863351117,,-0.02485683391066759,0.11774763958179355,0.06826534881946608,0.1921809868858717,0.06719961357486291,-0.08457603890560479,0.10619550644865346,0.08086420371577822,0.0010941232619151385
VTN,,-0.009688834539495601,0.029910594349851577,,0.004356093837132849,0.0072500302498521105,0.008372773027552788,0.002979891212615493,0.010345797557503488,-0.018172809063578155,-0.04419537067916873,,,-0.02753065490336646,-0.016576796991168874,-0.0344533411656431,0.07132395442298999,,0.07001938202988257,0.0037493421563991013,,0.016432113549395198,,0.0942179744164048,0.10467167694101565,
VEGFA,-0.019018312020025192,-0.00412550067307826,-0.1504212634289027,0.03752057451847684,-0.18949926816292198,-0.08456713811964166,-0.10257529249243037,0.06734687834471087,0.15312179005670598,-0.07712372023629753,-0.050441530311110115,-0.024097613321161355,-0.13410185264922095,-0.008701952754440025,0.018600097748859065,-0.02893872520897681,0.15250255078840558,0.1382899130234575,0.0033548741714258838,-0.10256528345439628,-0.008330294094338426,0.11953934515617577,-0.11217712034558067,-0.17084694180116494,0.08120416076242212,-0.05620116206811277
F10,,,,0.05432777938057747,,,0.031219118604044416,0.01864247500071528,0.1192840416938942,-0.017978636385122496,0.0958555803804215,0.021198792131534167,0.12744676890919115,,-0.04689690666585391,,-0.00010378440726079099,,,0.02196886489019294,0.0578264444481354,0.0008528949312746403,0.022969809243211927,0.011146037155957675,0.021644143992737064,
SERPINA1,0.007087544805531992,0.01368276413404469,0.23264030482675302,0.07132679044937655,0.14671643919576283,-0.029965600017004067,0.08470597101748953,-0.038939777643388566,0.2644882235957486,0.02659595448615967,0.024333370880463837,0.10976004329111726,0.09327314927400675,0.037543923492286864,-0.004050782105749432,0.009944019696650095,-0.07852362775886848,0.023137432751864327,0.08064861655507845,0.06144071774080404,0.06736863127973251,0.09271989973627104,0.19612944985934513,0.07541529004847126,0.06735633248733093,-0.07176076604735283
VWF,-0.003122686009102639,0.024359545148045943,0.15537745717135226,-0.000897846802365018,0.11236824972459089,0.044567274738784045,0.06841966103724037,0.05238652503978288,0.32431325155654533,7.617688865375008e-05,0.03773128768602837,0.037402053452890896,0.1018271207639641,0.0024672481611943257,0.008301150882396214,0.06406600172599018,-0.015304855532581398,0.13384879130083646,-0.0050586306196924715,0.05243776392456092,0.08127329850794507,0.002140359060915213,0.030821621722910985,-0.0681697149678302,-0.08315918128138379,-0.08069844691192257
GDNF,,,0.02120854500892075,,0.0670324545447981,0.012491610429033254,,-0.03749705145858774,,,,,-0.05106803222085773,0.04858943938155099,,,-0.07022932178930712,-0.02283293491108022,0.054028633974313865,-0.05893615235448585,,0.04238263137643365,,,,0.09723281545068169
VASP,-0.030209416954229264,-0.006951477213282532,0.16194026495216504,-0.01621906718108446,-0.048950945886938595,0.04322100381675446,-0.0063141738787107615,0.05402168880808099,0.2610050863143396,0.011661661071218866,0.05324352187491223,0.027636140354661807,0.12149473033702188,0.07267165227632007,0.06482608008977903,0.07485086161074606,0.019254067680346758,0.08975934630448598,0.020944205250199893,0.0502872089566222,0.16888089627605798,0.04348200188750038,0.012309255281062272,0.005260074213970056,0.05358081963840005,-0.0013349049357058932
ADAM15,0.05105009984736439,0.05579539297692323,0.11385468308698334,0.0171902032735284,0.051954209957079917,0.018686698617777473,-0.004470783846862616,0.026549542920153244,0.1291962047889605,0.02173063748420744,-0.012637553673361232,0.12941412305606356,0.06917783215054475,0.0034271123134708994,-0.05456285284830791,0.035810650341045885,0.03433408981698791,0.07405935933261057,0.08938573460069477,0.03966072707414442,-0.01305217256676539,0.04353808173843286,0.06454121926562105,0.12746345079831592,0.07645307736706755,0.05392986053278721
WNT2,,-0.052273549035314754,0.06269446574544899,,0.1397469168443248,,-0.07045350598800018,-0.03589928660725723,-0.10008004648207873,,0.004700613706248962,0.0001207880005256806,,-0.04290184291583534,,0.07275865525389151,,,0.006897029589847905,-0.01784385984979333,,0.018663244304421615,,-0.008272327911259644,0.05244019562199917,
CALCB,,-0.016155270155996597,,-0.018883103927563406,-0.008250254190541217,,-0.023587112894235113,0.02532529231176264,-0.07622339260132313,,,0.05794672793713183,,,,,,,0.10110783075268014,-0.01962585422626522,,-0.025635104117569644,,,0.08210563362640644,
OLFM2,0.05128438157759311,0.09874523158657318,0.044521656875353595,-0.02428169513150404,0.07230211953037549,0.06400605968548922,0.08674091241129171,0.00241389001546225,-0.10614302075941151,-0.04172968232595994,0.031171506631815084,0.056656820629748667,0.011716635478914777,0.0321356418958507,-0.05581869579026405,-0.057930323024825536,0.02745516305208477,0.08303304576998215,0.04653119996395007,0.017230821476475637,0.0748305540817623,0.006035128810987198,0.003751305581144499,0.21925174032106914,0.15209705169165974,0.06332538956906324
MFAP2,0.008650371765498818,0.0009504728580920503,0.1668749503762024,0.022697709188756604,,-0.020154148592318406,0.039919083735909064,0.04793601401417983,0.21690158467632553,0.03956569431087089,0.005752380693318993,0.07977573654143477,0.09718054310128448,-0.013474399779480154,0.10195462147188794,0.05688131078766486,-0.0478935938505727,0.18121127091164677,0.046285183246036275,0.070614713283582,0.10868568485134655,0.07376397551963826,,0.10406645695865135,0.13485972525330492,
HLA-C,-0.022713779920279127,0.1636171248813647,0.16476883843834841,-0.0904027297923075,0.122874409919658,-0.015378467058336256,0.014998819686786341,0.0037771309517969855,0.3913311375857043,0.12475669991150833,0.06616667496568622,0.17910208735967859,0.13997593153306664,0.07384534263363272,0.05648228225722285,0.13306093956897855,0.0430921130015464,0.07437026791177152,0.20619540340151643,0.03299054596987633,0.04908079621957836,0.1402571928811401,0.027571691274937186,0.10362708746236052,0.07809248430986936,-0.10892523857746644
THBS1,0.061325793196406665,0.02793855778574272,0.11274774163452346,0.026415003653830156,-0.04037544012604214,-0.06424449264650835,0.014642720581222774,0.06357678574683463,0.13390131935009422,0.03533882451710566,0.05626783761604499,0.07424862840589401,0.12937719791398605,-0.003077398043230743,0.05018986678123675,-0.028818753664881108,0.003301352460346298,0.08825115184029103,0.04837255588898368,0.08207564890245972,0.08664886827392565,0.03876278513475396,-0.03294705976949402,-0.2276417868636706,0.1120958770795505,0.08293824464684316
HSPA4,0.06152334082346625,0.05944812596818896,0.05231377330151673,0.02193000914184443,0.08023931622044912,-0.04257521767536432,-0.02465127541260562,-0.05059292588553573,0.08919959999268375,0.05952910507359564,-0.03523405051086204,-0.008130773186710506,0.09446829257214391,0.011140406596481188,-0.004519221820935601,-0.03966295662920116,-0.021693717419372975,0.0058646797210852395,-0.024575771912084182,-0.026487684617771477,-0.03190843143147891,0.008421943482367106,-0.04928392616216902,0.0018184326199697062,0.04449697540838163,0.03687285175070222
LMAN1,-0.021171231231277822,0.011117255349486847,-0.005120201274747508,0.028900024997349713,-0.1605781909735524,-0.07247231496652783,-0.06819791216274881,0.011458171651954775,0.29885264464343675,-0.04652423340263872,-0.004900395309411774,0.049741913210451974,-0.052377838046796486,-0.05696052725836506,0.0076293392148250785,0.08272528017645721,0.052550717427539514,0.03373162031318284,-0.022479997578099587,-0.0331902527246708,-0.006324681629889305,0.07244075098485778,0.08293521082214132,-0.013949105349334558,-0.05754773105172779,0.04971536314037897
LYPD3,,,0.01282328719994229,-0.020721229123775532,0.10747010103283801,-0.013233183586410785,-0.012307662988070933,0.0030175523465289255,0.09347392140888987,0.07485922686192985,-0.006982988218766774,-0.01542737622298737,0.026929612434999448,,0.054260466859959056,0.0784751374288943,-0.006123720315213317,0.03454335903908151,0.08856541131485879,0.07613652384881302,,-0.04481440193752732,,0.05203403408920095,0.08309361608841345,
APOE,-0.03370947458053747,0.11054282292376955,0.02145929114576556,0.013025860708851929,0.18621723791400352,0.16511595048430036,0.09688130187216874,-0.03036891210161311,0.22326786341208066,0.09781233784484673,-0.030608223832163366,0.14872364094681553,0.06756513936841989,0.013400466948499636,0.08019311934104052,0.13128651231799565,0.0634327975036363,0.05976671508006363,-0.08835250721625604,-0.028716286349486066,0.13576635931424957,-0.06359127772743878,0.0764001824664944,0.11315475902857873,0.038117614903239026,-0.12568955563163337
SOSTDC1,0.006168550971601715,0.0208456074532389,0.00026981516713363697,,,,-0.10650080610569536,0.015698623909393118,0.0027533607530991063,0.044900193681522864,-0.05284048904225262,-0.12632480648717362,,-0.022552549382811087,,,,,0.030824322782296576,0.08008945980862811,,-0.05331671318233832,,0.07427681792111639,0.032604406535244955,-0.05243207615448675
ANXA1,-0.014502892407161901,-0.002365132009152161,0.23143349872368713,-0.000938374195433172,0.02685172371659489,0.03775229361298979,0.10667908110430527,-0.004636107917935015,0.36765197697273416,0.10967490923737301,0.05995407416375703,0.2215115173339146,0.15964102526827267,0.024865173629088536,0.11223330465061546,0.11845096175772893,-0.07929919691846643,0.18311037141207248,-0.033735573931198734,0.040328126719738226,0.07394064146198964,0.024495351454879244,0.04170106315422484,-0.01892436027546374,0.055195935813223435,-0.12260065959054264
WNT2B,0.04687564933727097,-0.01808038026910798,-0.05357562100434806,0.02581143903075817,0.12598384954297223,0.032739191746641104,0.08397629751734179,0.0261693765862589,0.1507395536542104,0.07177325979297479,-0.0010967111544095108,-0.024162635120342207,-0.0005979089730649201,-0.001782532395206007,0.0014761448964333726,0.07568383914893592,0.08240425005804923,0.07565193299789058,0.003226776361841572,0.05552681658269879,0.015565649343131555,0.05270333762316605,-0.03294473316129889,0.08266505077913447,0.06321149895223357,0.1094971899366377
AMH,,0.08592162898447808,0.03406932315939746,-0.024275433973424285,0.06294121113762968,-0.05475392305997856,-0.035563113198623535,-0.062099314420484775,-0.01347625382963562,-0.009603164574552436,-0.0016083137585987388,,-0.05259246493139079,0.007979588244118239,,,0.010548049284475834,0.01871707745862854,0.08901975919389313,0.09624461358734888,0.021727605511586083,0.02952528742581584,,0.09899324383929511,0.025647903681962007,
GDF10,,-0.0758897599556643,-0.0023570062793900363,-0.009125110915987465,,,0.0002325727264908471,0.05467082136443728,-0.021941803500384653,-0.05445758228440562,-0.007001937944503604,-0.1118859962027653,,-0.046664027947711,0.11502485210085005,0.12953379097368317,0.08360758348908923,,0.08138714322548868,0.07409562338092736,-0.04558939245643521,0.06349351232219305,0.03921949860916749,0.052612999118024535,0.0486121274896228,-0.08723253020019835
EFNB3,0.01567207698297095,0.05003244393408299,-0.0020718209628129538,0.023498415364773432,0.024091048350349982,0.026133432602422152,0.018460079167149628,-0.02335532481586311,-0.10119517926551189,-0.019905965043416938,-0.05264907205021258,-0.1342772845518791,-0.06530304153248205,-0.02775987218237271,0.0908087329635951,0.13263097215168898,-0.015466466645619244,0.17913438021889866,0.08625440757593633,0.06411131683455017,0.12152034278765077,0.010596868957182686,0.005961478819624317,0.2202187534370209,-0.03008181537480244,-0.0489241282631786
LTB,0.030869660151554634,-0.022615917324473905,0.039275840794309874,0.025987447711142107,,-0.005470661497866139,-0.028720600338679698,-0.0414479353003234,0.006300800869823465,0.030992411024926433,0.06925337341859342,0.025512046819542163,0.000389441349494656,0.1258253078766168,0.014903279014436126,0.039978975743402714,0.0008710782570742738,0.07415664681451332,0.08182958996696223,0.05852493700552936,0.04111889799331036,-0.05045743902388218,,0.14025510347640646,-0.006731932417879885,-0.061462297182209816
ANGPT2,0.08046454722965486,-0.013663613222905307,0.14039348875668523,-0.02333278958045195,0.11024073351261043,-0.008326125981922927,0.05478748874422594,0.03775020979116185,0.3854960578403387,-0.05030899693520892,0.013715302815778672,0.08139799934712157,0.07230085846834623,0.004421280569142991,0.031535787734022505,0.09484597944145934,-0.10024002822836879,0.25961603927538146,0.047401465185907786,0.07190291051118446,0.11167877989312605,0.07538551614801017,0.11628739289591135,-0.080530734843837,0.031658237041327385,0.003232062940370648
NRTN,,,,,,,,,,,,,,,,,,0.0091831542350415,,,0.05687585275065468,-0.043392021372230104,,,,-0.03441139182646653
ADAM17,0.015472352532664057,-0.024935336910060286,0.04349069712050014,0.08545610942671832,-0.003290690053414959,0.024343739334964233,-0.014836668230028775,0.0902951730484029,0.16607890015084137,-0.006568348405734274,0.060734378396958756,0.08151176390528873,0.06881182589044993,0.006103556570459078,0.06347922314520325,0.11589867843746916,0.071304786288955,0.10064518027120824,0.0013015794686264566,0.06618878788039616,0.03636229760526617,0.048894435163519795,0.057978228140119756,0.010272511776005674,0.049029872035056314,-0.0009556923372413042
LRPAP1,-0.047078059997767124,0.05065960098829793,0.06157396149656028,0.0415640959141797,0.08291728311740763,0.030846911033067238,-0.02146840522085829,-0.004073103366086251,0.20356751031634326,0.0472636748811304,-0.0013781860157666137,-0.09202270116915301,0.03477400751760407,0.06064454613517037,-0.01686612425528508,0.07886635615646433,0.03791100464568169,0.07793293474801431,0.1417056228016284,0.04541704581699463,0.0894588426576331,0.03255000592730576,0.07799782408031596,0.12665791445663577,0.03009530200057209,0.04946372167860111
NID1,-0.009699836378319596,0.0833394501643391,0.15117643965660013,0.0023643865965946574,0.058321253883576896,0.01934041229592389,0.07892980567093123,0.037294995103850016,0.37990813795475903,0.007252351195779974,0.0607790924083012,-0.012513326889766767,0.12744661158824747,0.07729972858262212,0.09892371305936463,0.0848122753001202,-0.03517693894958897,0.24484514943644886,-0.019468024499584336,0.04722671857723962,0.05349907871837577,0.08918468763471081,-0.01588896027501576,-0.12119534479577483,0.08757494812162422,0.047520268965315415
