,MGH258,UKF243,UKF248,UKF251,UKF255,UKF259,UKF260,UKF266,UKF269,UKF275,UKF296,UKF304,UKF313,UKF334,ZH1007inf,ZH1007nec,ZH1019T1,ZH1019inf,ZH8811Abulk,ZH8811Bbulk,ZH8812bulk,ZH881T1,ZH881inf,ZH916T1,ZH916bulk,ZH916inf
IGFL3,,,,,,,,,0.025590240679667114,,,,,,,,,,,,-0.04891203883997213,,,0.0105391150469926,,
BMP1,0.03174605078169862,0.02953150096922254,0.11184581572147666,-0.025690617644274508,0.022641701483171302,0.00804113434188026,-0.01528997691579393,-0.02046502962822709,0.19117335255322607,-0.018570788747095165,-0.018647553872303685,-0.1117633438731212,0.12639053167938083,0.037944403733864374,0.009205057416939038,0.05836765371664099,0.06891877313841516,0.07429877733452835,-0.08470029146769352,-0.031436625599876575,0.08203977621470546,0.08560055836597921,-0.018819142597598492,0.09093566389680133,0.0748640149219115,0.11490384252928829
NDP,0.03581733501140613,0.0014406218520425817,-0.03576579165048763,-0.015486760059996366,0.09424336327017899,-0.021349502554740402,0.033352210564695194,-0.0011153740997499506,0.04332901675114864,-0.01651212950245211,0.012399656598905068,-0.06310264192710795,0.07839867806732617,0.035203429822101374,0.09250113152173775,0.02577391731045825,0.024344528366230134,0.03818285324578784,-0.02575041086760167,0.021343449658850287,0.05033799788386159,-0.03160514441864265,-0.021794764870510415,0.039246483825717056,-0.016385638904191587,-0.009708637332485425
TNFSF18,-0.01875488279097906,0.02666930687727229,0.018881495603311368,0.03380045872671276,,,,-0.03492990943288511,0.07705064457470623,0.00462950568591423,,,,,0.07684668763170056,,-0.02301029429950526,,,,-0.011039032046281042,,0.016673889628586774,0.07195450520399689,-0.04287347367969452,
IL36G,,,,,,,,,,,,,,-0.001392203632967483,,,,,,,,,,,,
RTN4,-0.060208306753915364,0.15810461616464233,0.03952034520304455,0.0038046315263634335,0.050170160328163974,-0.01817971266097807,0.03719012954420663,0.07638464930459014,-0.19213097289699121,0.01546609501079022,-0.030856699494191505,0.1992985290819021,-0.014803194330095082,0.039048691991925746,-0.026891158043349163,-0.023529412029602934,0.011340722497806311,-0.06682528161478637,0.0688516009418555,0.14984467949973787,-0.029595479512225846,0.01883014999838133,0.023251850703238566,-0.04923371829465794,0.22004027294226283,0.05041054738781762
HEBP1,0.024817257986478918,0.07266690679526315,0.0403917958094269,0.0222897699023706,0.007613129148014074,0.0003291957620924758,-0.0155220637535449,-0.08525422472906388,0.09083827727525431,-0.019218638077050505,-0.02702028073899777,-0.09519308899278875,0.052079768820506876,0.03723615186936044,0.06087572091273067,-0.023227010413120634,0.02390455942782072,-0.004990147295798646,-0.0853174257566332,0.029518377619812193,0.06673390699302155,-0.030333099675690357,-0.0624692886607461,0.07773721331873149,-0.030526742301597416,0.041788803358584224
WNT7B,0.012027530955560004,0.09071537212039044,-0.014392040671285859,-0.0024745728656040498,0.02190846759722562,0.012160566243700127,0.018089678577234522,0.03343989037698953,-0.06048135460390132,0.026786040991152168,-0.015258833933114183,,-0.006660441299990867,0.04455549668390607,0.040195882360541786,-0.08916193659697384,,0.10569255873369017,0.05556785441756271,0.05191669059917167,0.01961519016297696,-0.0036245198775668457,-0.024286426882087056,0.07623895727825585,0.07438920710060173,0.0164605546024597
PTMA,-0.002210078845398571,0.04166622813791566,0.02002109545015624,0.05282246046611481,-0.004953534759882478,-0.011241552947202374,-0.08773255961292771,-0.1026383742974378,-0.17691047984008126,-0.019221375041678795,-0.01594685383166306,-0.24558200232006536,0.14448186680674846,0.026954035886693206,0.0038285263843345846,-0.023991612491062426,0.04700163392749846,0.002630357292497824,0.035905793985768826,0.010307199428135246,-0.027290641380709486,0.03163479264251352,-0.11203530475814469,0.07686671222213827,-0.057781229318123455,-0.04793375035554519
FASLG,-0.027690484354289866,,,,,,,,,,,,,,,,,,,,,,,0.02900702584832463,,
CEACAM1,-0.03605352540077432,,0.03528139508018996,0.04596041961200126,,0.0020579757213700675,0.004066716896308625,,0.03511011031369867,0.02395551411884983,,,,,,0.04364287475979917,-0.0473491076140179,0.08675985972059178,0.07364008974718689,0.010170332204184809,-0.06078747251157157,-0.03644703633966498,,0.044032221634465456,,
PDAP1,0.0033006663920298507,-0.06702563223347864,0.040330669585669394,-0.016764306897381908,0.03163335684276572,-0.02566784956420759,-0.08491033734660842,-0.008612414559908271,0.18984096606314502,0.02259020412983553,0.021476570247750983,0.03870062573768658,0.09250499014618926,0.0739086487798023,0.08980699374821288,0.04113603874834729,-0.026043499472942492,0.07930123926111325,0.06694568010231731,-0.007740142297508548,0.04665499149113579,0.05874824916290703,-0.014945914309179383,0.08007943910422874,-0.0007053312072394608,0.03775476689216622
QDPR,-0.020074495806804295,0.11524280227211547,-5.381920539116602e-05,0.05101044283343626,-0.025023650396812792,0.04193380165812399,0.10439625120758143,-0.01898688103270765,-0.223089180708969,0.005884069922985478,0.02283140461386524,-0.18163909680011592,0.05446700293191136,-0.05235428464271749,-0.04035961735092876,-0.023322915868440503,0.019522405291823582,-0.09565937445178538,-0.015011035014048196,0.06603674021348722,-0.07009417416250316,-0.06528274484028652,-0.0159699869003646,0.07180865043735939,0.0734726906151227,0.010871862902456396
POMC,0.050320493910674835,0.04834874756735908,0.06429062197048802,-0.05936376202750239,,0.006119981115949936,-0.0115362204690977,-0.01651327394714952,0.02098912358987407,-0.01519513894643773,0.03094503387916096,-0.07438992380176085,0.0365667859367095,-0.03471003267599194,0.0705180394840957,-0.044632624153261156,0.0801320653237155,0.05752046646045166,0.013281755375687546,0.036697110079400984,-0.00880266296228535,0.0005617835917699272,,0.06537842067502671,0.11782713380202503,-0.044990295081295095
CCL18,,0.011475668450009153,-0.0395678653469501,,,,,,,,,-0.08461996836309721,0.10567732331031884,,,0.06013571529121372,,0.018546421386122426,-0.013194737495920664,-0.040656637283379225,,0.009971053261995749,,,,
CCL17,,,,,,-0.024760327684313316,,,,0.021013281526605945,0.012140747697979935,,,0.0317529218205076,,,,,-0.06981968752048182,0.014046003095281562,-0.0258285866889532,,,-0.012394309734104809,,
VEGFD,,0.0033466680220089213,0.05810188462609309,-0.02006684597984238,,0.0040642197606059315,0.06367896238044786,,0.0377966776869297,0.01019786951422339,0.034108664999498974,0.11354508205642468,-0.004757107466037002,-0.019306927712213682,,0.06271892266534954,0.013619745809052302,,,-0.008544265523060939,0.04397493612510508,,,,,
TNFSF13,,,0.06010575315030157,,,7.346104749224045e-05,,0.008110392649131978,,,,,,,,,,,0.07145411783913401,0.043044226271611905,0.02261724554049321,-0.004788542347539019,,0.03457986363238832,0.02784303887667581,
WNT5A,-0.006923642148409172,-0.01751019607436675,0.053204186063181676,-0.02835782247015757,0.019440235004611756,0.024849244274711222,0.011185316893445442,-0.06835530235304789,0.09821622022183624,-0.023012663459566145,0.054031901635367786,-0.0010545553998011804,0.0009620995751343252,0.024681923643302243,0.012987354222395327,0.013668352417641777,-0.031189046364793496,-0.0392269239974946,0.03029969354321603,0.04749004349020814,-0.014966476761294294,0.018331397033484336,0.05436422469229578,0.11931879341340769,-0.019747447428403824,-0.024173055737785682
CXCL8,,-0.07478124243583237,-0.0068187290989939996,-0.02724332229822595,0.031873464254310334,-0.021396743245933963,-0.0005756722777548599,-0.027620727146514003,0.06440966022028219,-0.045613641581285204,0.07596766639223765,-0.05848860287167987,-0.02505116012330072,0.014949952242271405,,0.03906793185089566,0.09221622653488727,0.072460607699147,-0.10829756105537616,-0.1403504536654119,-0.046001566101763494,0.004285176682105313,0.02196596364455975,0.07730652579304545,-0.14359191195071375,-0.024260644586105804
GRN,-0.03493594659787387,-0.045118766430964845,0.03866768418950963,0.005233653297652447,-0.03181772527414384,-0.025630609838093982,0.022142447979129218,-0.053530268404356374,0.16334860039563426,0.023819793599138606,0.037312819284930826,-0.11087012825969697,0.08729632234562314,0.04327131770268262,0.030397958335934075,-0.0021079018173593787,0.03128392977417519,-0.012787318404623084,0.010299523834264575,0.03887545290364815,-0.027811225141568776,0.025836653049449494,0.07546569738045802,0.04590070932230553,0.08342924895253032,0.004214447536727166
MIA,0.06556128620372892,0.012199095820560772,0.0114381767890191,-0.01370591588402167,-0.002326754308037392,0.03036447472574178,0.0023665140007303807,0.039501678268578054,0.10745799609368614,0.006918706851264076,0.025666571730350054,,0.0163334962712225,-0.003318570869295503,-0.005122765249223472,-0.01694528599357286,0.010709868264222511,0.03228592489607662,0.0067483021667866395,0.00916861731558023,-0.03465473635758738,0.0684735228125791,,0.07161340246478393,-0.05025781391192497,
COL4A4,-0.05492092716015328,-0.03577984492470401,0.005244248077586208,-0.020482278510464216,0.02100408168602014,0.04775144486430598,-0.03199913207543956,-0.031314843183295124,-0.06700425680930357,0.021761759213885668,-0.0017625892816174038,,,0.05089722272661956,,,-0.08591037781180878,0.06350376534012482,-0.029330775797887097,0.026812694292154736,-0.0496569959477671,0.00037267986766835974,,-0.006249920706031068,-0.037375709312671535,
TAC1,-0.033318685451186304,0.07791760651004942,0.020690892936112613,-0.006539371128255124,-0.025300016146544063,0.03973297474544543,0.1377081806383196,0.11211264964023421,-0.09129567619674059,-0.013486082998008405,0.03342936578880532,0.1385356603159983,,-0.004146668303254858,,,,,,,,-0.011376284202000188,-0.004768246703515886,0.028236365218244654,0.14487115874599182,0.024610825096644372
RARRES2,0.020671386207327603,0.09822189402734928,0.03926516866792745,-0.001748211123603276,0.06989090722749418,-0.030709223579486935,-0.03258178539844313,-0.07625198703106963,0.1901239358928907,0.02608013679830313,0.03839360606677798,-0.14144811155996648,-0.02080838786140264,0.021392069146473305,-0.0317256334014471,0.03349317308202273,-0.10510541511961428,0.10282522758698769,-0.07963090064617355,0.005378083038032407,0.017865239275353995,-0.08645160757589286,0.02176436677680938,0.1131313708286489,-0.09280943714963254,0.10929005193711044
FGF7,0.02592447539142297,-0.027336120992002225,,0.03514428093355837,0.032704973939352164,0.049520271062753106,0.04896764241110554,0.018307855706203902,0.06967485114278647,-0.04698520457093648,-0.01320370516886842,0.053464959961386255,0.0148035298133913,0.10460563602276413,0.08370610176982214,-0.08361365707493063,0.06662447235520702,0.09560998564630147,0.037546039936572,0.04887888710752986,0.006408510036503387,0.0002222856717305679,0.05770902867800208,0.1014083308671892,0.062365948052451214,0.03301379636360038
EFNA2,,,,,,,,,,,,,,,,,,,,-0.006071282114437748,,,,,,
HBEGF,-0.009005905784190636,-0.06119324695262991,0.06649829530142093,0.0897077520950311,0.027273154667599112,-0.0031608250893222292,-0.03919028682725511,-0.05419868752755857,0.07769470196483906,0.029656314725965943,0.02147755424211369,-0.13944480309838844,0.1474745301228802,0.032736397757907786,0.08452892562073282,0.040798891242304444,0.14245040639951545,0.034793681975856326,-0.00020903807196005712,0.06764407247498744,0.000614275854668813,0.06643998529330099,-0.006775049544250582,0.14490365887028553,-0.004682015590482727,0.06875745770684201
CSF3,,-0.060233674387780205,,,0.045122238182439094,-0.05857224289142998,0.03184221407484133,,0.021356481361275714,,,,-0.028499584630626247,,,,,,-0.08396472219779488,-0.07768110774624365,,-0.02701813945603107,-0.07973219218080958,-0.00254221635718398,-0.01903400420749449,
PI3,,0.027405866380237093,-0.03659376902484893,,-0.017777381179235458,-0.04992859361856105,-0.013469694725485919,,0.041389356253734466,,,,,,,0.015704574345372237,,,-0.021131086584302253,-0.10181953790984044,-0.014819316661686259,0.05346151503070187,,0.11085986391730562,-0.08639093996515615,
PCSK1N,0.05366777623855232,0.11583209815864694,-0.045867967479964786,0.019511875830870926,-0.019539477426476805,-0.035980142855878625,0.06440818175062263,0.052716940537304226,0.019295195602225635,0.01833316494701204,0.025437084217157915,0.21961843175743712,0.04687798326825766,0.06291648381152683,-0.06159947199181968,-0.009233071893125111,0.010977568599433205,0.005795883095496318,0.08898254607319189,0.12640309846446732,0.034996900038782024,0.08108079062978188,0.054695479080022855,0.042186387507685,0.14628483455334132,0.043691366063361034
NTS,,,,,,,0.0023504376910844374,0.03444362854617953,-0.018122565260945654,0.014740434451355682,-0.033454432831852066,-0.057057826184402555,,,,,,,0.057112126190029304,0.06778093171252153,,-0.01878926779569458,,-0.0015180019039195678,,
SFRP1,-0.0030347928861103397,-0.038400778133300166,0.054653856294151724,0.050922421461684735,,-0.007873740194279015,0.06203682242714428,-0.009805691505603013,0.06339321675637978,-0.015739365423307252,-0.0030161510704655946,-0.015215041860519654,0.05226587910813961,0.051860963890551184,0.015689882006835822,-0.003959001670197903,0.09453730765119393,0.0219036807452712,0.08500793530765026,0.08640601833152059,0.03059425179056822,0.0046493047012452025,0.11145498939100752,0.013566205269927224,0.05331107759122011,-0.07510458704772416
CXCL13,,,,-0.04052568368294756,-0.002325544150369637,,-0.006002548027179487,,,,,,0.08550587514579043,,,,,,-0.03426832623904842,3.21021886304563e-05,,0.06183181045945761,,,-0.030246365993767732,
MICA,-0.03221752872599874,-0.08193611297785683,-0.01009752437867725,0.013440367045322307,-0.0035535134248836655,0.05917269112060188,-0.012974617503100281,0.017796508454858865,0.12254001965161808,0.0014381782381762314,0.03313057665411993,-0.04860080584674359,0.04046949471051358,0.07000212557961516,0.021268499893769582,-0.0820045149561212,0.08128012008483984,0.06535784991822771,-0.035882798035430236,0.04182138544539348,-0.012676142583202458,-0.012969602462553508,0.012197179173506843,0.13199817261647442,0.05881444954733574,-0.01983187376011356
TG,-0.03544901695651309,0.022443388130361376,0.0394058205842744,0.030830870196060664,,0.05117472621613973,0.036882480972626086,0.04055976707505407,0.017280532141562475,-0.019407105542196577,0.02279503062898527,,0.0177465154042433,0.00942135104422586,-0.021942334597471514,-0.015816602677157152,0.028119412766761696,-0.006641903498690932,0.024767493956313964,0.005697016459123567,,-0.006367384926423778,,0.038852821507838725,0.030824259440413386,
ADA,0.054599771143723774,0.02495556905318429,0.02492947878029127,0.05322870718779967,0.06632220958236726,0.050533642524724004,-0.008155694277872688,0.0420781535577104,0.13264026334006954,0.05767376936281656,0.01026800971429648,-0.1470144650023363,0.0809843007715587,0.045583385515599456,-0.035545702103405956,0.0039042436467706973,0.031199879200513748,0.04853918845769669,0.03509210740301522,0.02082082708828873,-0.04887266236227423,-0.01685334782445083,0.05411429115408201,0.09813451879571733,-0.001540192755577297,0.06330933961308188
LAMC3,0.046000519692949327,0.041182292089621396,0.10641052854814274,0.015648678309451287,-0.009260089672074869,-0.008617045825883385,-0.018866946909687453,-0.018845739418193466,0.2124728750954975,0.023086074930072004,-0.016322308322561232,-0.012064109086259775,0.11951034772331329,0.08191021790363792,0.07341611639529018,0.023043890267752533,0.012930037184464945,0.008734905860309072,-0.009045372331252991,0.056747554151649275,-0.040929892085433676,0.02272466420442585,-0.030797594287573494,0.00533487035074949,0.15845391419597257,-0.04481676794038293
CCL7,,,0.02335568849727042,,,0.020572444440618176,0.021445229618049167,,,,,,,,,,,,-0.008243271504679002,,,,,0.026805248595498623,-0.06124495795739081,
NGF,,0.00756351569926868,0.01068049228441571,,,-0.014306614515400128,-0.019710589659425168,-0.004609894859905298,,,,0.04370484414811489,0.10309107627560954,,,,0.0331667877764481,-0.027303220138039336,-0.017593875781568222,0.06085816177101384,,0.02456628586687031,,-0.0015668327308596217,0.05508969914203982,
TNFSF15,,0.019802363951197964,,,,-0.015374804573506179,0.029331071973880928,-0.030697698359617775,,,,,-0.04307781256746556,,-0.03228468392921668,,0.05336448070196968,0.03345416935061194,-0.001204515408447617,,,0.006727484413015958,,0.027168975559199372,0.02387338029137465,
HMGB1,-0.01626315007190487,-0.01987044071242894,0.036827788074242314,-0.002910955263967952,-0.04932450693475033,-0.03255707939728202,0.004866471946753914,-0.03367461802426362,0.14128701768862756,0.007444506760965655,0.030996192496806293,-0.10263856480917008,0.1357866630538875,-0.0055633931765764295,0.020289376884694135,-0.039346646337396304,-0.029804657132274294,0.0974025401300846,0.007226556163182618,0.021182188590189943,0.013860301487178988,0.03928727095416637,0.04434644076896878,-0.019026639159221828,0.026099088584443653,0.023300971326186304
ITGB3BP,0.018655081019014,-0.02029853854786361,-0.010867845600031043,-0.018548019978033205,0.08884559272177707,0.007595059295341611,0.038012501995645716,-0.02019242463157916,0.16308993435451394,0.00073863829146842,0.022457106870443996,-0.008869992975401633,0.08885900238186123,0.08505964308565576,0.09983809770599285,-0.05607525760854432,0.0052275783274819965,0.03976250351068163,0.025242935867262287,0.054385829746609514,0.02675395996860364,-0.01664235127151482,0.024450657575849296,0.08325719445563437,-0.0945621661762962,0.09904505880377508
AANAT,,0.046141149241532335,0.03996625775331704,,,0.046286879765231576,0.0222952588283224,,0.013612502688186449,0.003395872111306307,-0.02345905536650003,-0.03736038298702742,,0.04671507543179584,,0.016957767337394007,,-0.04945867519367275,-0.03945593408071003,0.015928440783097096,-0.02919199035978897,,,0.018839724777495594,0.02413055054124293,
RELN,0.006240653181795214,0.04115874753717973,0.026290422945473985,-0.04902792217258617,-0.0006402154813654295,0.014123229404381862,-0.025679309862901914,0.09505431714208114,-0.01380923234004642,0.008350218277138374,-0.011029689505893801,0.02769304778763744,,0.0015791496884791987,,,0.018941947491235425,,,,0.055662363079694716,-0.002361938902361331,0.02270163424896941,,0.0895460791347878,0.06787343838558596
IL15,-0.03314098338459857,-0.05265538166221651,0.003363944411589242,0.05429698935326286,,0.015033479821537844,0.02839540483700323,-0.036700864039498175,0.048931354404879265,-0.018994257110192533,0.012425170362560608,-0.03079556157713929,0.04369541314039156,-0.010496593460353922,0.013567406179950281,-0.06265679665343506,0.10470689964558265,0.06047429906130384,-0.01197867587138676,0.05406767689914474,-0.012052784608589348,-0.005384144762061027,-0.03712296972013164,0.09316446489745228,0.028393788416621633,
UTS2,,,,,,,,,0.11072278624827671,,,,,,-0.009227751606296571,0.01149210851992524,,,0.0053386589222461185,,,,,,,
BSG,0.035239808406615135,0.026668551147867328,0.06948575098341608,-0.008150674504073715,0.09392694238669555,0.03335669793435472,0.017732032360961564,-0.07327794537811345,0.06606016628146669,0.03568971055351345,-0.025364526242439865,0.07777754850496109,0.004942841605208624,0.005285295772359092,0.05546214849671861,0.012014338600442485,0.009264673685448793,0.09275625864687317,-0.06114807388105532,-0.054104547986141914,0.07626903680234448,0.03606313249255197,-0.04126264006972729,0.09776010864164654,0.06271812309127102,0.08367595142248543
ADAMTS3,0.05930818179295098,0.04178401308772699,0.0395377126699362,0.022326924045939868,,-0.00615985839609047,-0.0238645051963817,0.053757001501716785,0.20984461089666515,0.015200440909290121,-0.021924380228836096,0.027328677079785688,0.053412859939031436,0.07876512423238727,0.009616341613436385,0.03544037253611508,,0.04004115028984541,0.05598149717644547,0.02740263419043426,0.0071080740177544965,0.019989932600086135,0.00470948140833847,0.08214678111228459,0.056700985561995244,
CD34,-0.03846460953636371,0.03837195958796009,0.05678609965723599,0.03308085595911279,0.043666224705360975,0.01504301390756739,0.034788197848488175,0.04557916869007026,0.10444661000261117,-0.015510124984694304,-0.012714710781302454,0.024168384877981973,0.02615448295457753,0.024371917726097564,0.07736522622916049,0.03872458220460014,0.03563861749171805,0.09190375599797829,0.01978575514987975,0.07950289324774774,-0.02934529914478851,-0.007276243401485182,0.11907772691095862,0.02791549626390405,0.13739387066944098,-0.04880700529698215
CCL23,,,,,,,,,0.012368322487147339,,,,,,0.03363518773626788,,,,,,,,,,,
PLAT,0.013976953274085395,0.0425631113064436,0.09545011326276182,-0.016827005136610267,0.05699591872509158,0.04442415011666541,0.02489517270913891,-0.11290375248491857,0.19535612665397156,0.026388116588288543,0.019456173809482915,-0.0004896465806496787,0.043107320679052645,0.017487136629547897,-0.04591116548563146,0.007250298914308053,0.04624140537377696,-0.0040018164091560554,0.08025572940829985,0.13263289364823727,0.022281352063952837,0.04932891220833272,0.022990916676546274,0.05064408963342645,0.076135587153252,-0.05955495575264028
NTF3,,,,,,,,,,,-0.013381211883290242,,0.017244227376953105,,,,,,0.05031744400379092,0.09278299030027846,,0.01292344360592776,,,,
LTA,,,,-0.010144290615967345,,-0.0018430213553772598,,,,0.0010624922637417246,,,,0.012484450742162699,,,,,,,,,,0.03486118012023214,,
CKLF,-0.010149822735283899,0.031401545238949766,0.0055795172758610605,0.03470064505726117,-0.03517716172987303,-0.044398739616127586,0.014232200344656457,-0.021175655872293905,0.19773338287591832,0.016137174391879082,0.0028524486570924417,-0.07809884325104609,0.08185924141023199,-0.043230008737260364,0.0382796632796679,0.05523757940820635,0.10966357358132302,-0.011252469136208148,0.07237542349540965,0.05129208874593507,0.017735766698853437,-0.03272391477169419,-0.07570204946730257,0.013159270717871456,-0.03837616792169969,0.0612638438746387
APELA,,,,,,,,,,,,,0.059298318885599624,,,,,,,,,,,,,
CD24,-0.011242911598050027,-0.04879766472365774,0.03568410498145647,-0.027315700484797083,-0.01059241907886661,0.025839879674387365,-0.03143713215319458,-0.011308131619570411,0.008499420999004198,-0.02916795719175934,-0.010248226954732362,-0.011475913160909268,0.12700555844948389,0.010056501054691736,-0.010813510549090482,0.04521210175173057,-0.08054905874935651,0.12075424162010161,0.14030624050351276,0.05544665354077943,-0.03425440859124891,-0.06110874007357024,0.02472539304588117,0.08871498190678147,0.03234137977940925,-0.05226432652952902
HSP90AA1,-0.041079591167466796,0.055482829014291815,-0.049259631537394516,0.026616997460193123,-0.07565503832168069,-0.0481420536359713,0.08296960874160347,0.06233735621495245,-0.16534703136393164,0.028904594522424873,-0.02791472096493792,0.26315070843432015,-0.0765210271263129,0.030801261943269206,-0.05731090823782496,-0.04229861396661357,-0.0638391533132343,-0.03448598502270434,-0.08742544076962956,-0.0783080892139152,0.03499502200117664,0.030218758899841977,0.013314410640509462,0.039836356988246925,0.11411266050694936,-0.03588571774423589
BMP4,-0.044550556645617155,0.014787470340486386,0.019615797576833797,0.016934501018393437,-0.0009862884269430875,-0.02976649010219326,0.05207444695365042,-0.015135306427319313,-0.0038899759013596943,-0.0026777293083593877,0.020929025692978328,0.03593777952747452,-0.018657993821225217,0.06407944191783745,0.11495820283968239,-0.008271966803724499,0.07185606738238617,-0.01599367471782397,0.029106839300623303,0.051858575443785464,-0.011993370787786522,0.0013289047654996505,,0.06261917492424979,-0.012188346391745935,
SCGB3A1,,,0.01955399171026646,,0.09346495049023947,,0.0035129509166569504,0.004761625792446841,,,-0.024745073110027525,-0.07161981424235661,0.03312998899684427,-0.007077551626471231,0.00993006120142309,0.004023762352066613,0.033499792390247855,,0.01627882771081367,0.03684815119406002,,0.043893399242045945,,0.052600120871231164,0.12004227837986413,
IGFBP4,0.007722579625079878,0.025713522040787206,0.0776597868207673,0.01785608632030689,0.012449512246550465,0.0037226125894738262,0.0645776057880552,-0.030697240576360977,0.23468788860399523,0.03525132002567923,-0.008748791587659857,-0.0445257976283738,0.10162388341064159,0.09914896489733585,0.020284877437727777,0.018249133952221334,0.1513288904576817,0.07878538423475208,0.004733331711223521,0.046279487980011455,0.03586285078562245,0.05629114935855903,-0.0679307518279138,0.0627885186179087,0.10086382696323037,0.08145099851279215
RSPO4,,-0.03928308312458174,,-0.04826294869958167,,0.040526692689986724,-0.06320587033275303,,,-0.0061678043369874005,0.06090668597766102,,,0.021786507789123152,,,0.008878629267199142,,,,,0.008389698286896296,,-0.019074402271493714,-0.0268739398025466,
LEFTY2,0.007610897744484645,-0.01987999067545243,0.032853081304533904,-0.018242750322117203,0.008785303509124577,-0.004065354388619981,0.04400739814656853,0.047399360781865324,0.21206720108990804,-0.008331734471474473,0.010328561731669975,0.020578118499544128,-0.009870828617505165,-0.006465842354245389,0.05081798730308278,-0.031694789111995345,,-0.01349975506668627,0.04633730531896805,-0.022734619872860243,0.040059628179755814,-0.022233618039138477,-0.0572106184021082,0.04334220282361389,0.16079892148184094,
PF4,,,-0.015344861777086086,0.007738600876442453,,-0.01984946424268944,,,,,,,,,,,,,,-0.0013902720518355624,,,,-0.0071341930574207735,-0.0186765696072636,
ANGPTL2,0.06371114243634762,-0.015443185291399595,0.06614907034706059,-0.035036530059709206,0.03378868855920436,0.05355205362866437,-0.031577778151224804,-0.05666014529104609,0.15556733099540593,0.011144728084604453,-0.01258802724198568,-0.10768835487947709,-0.03472535037914663,0.02544668108475163,0.05326226085901827,0.018297884577068803,0.09422231213850472,-0.021055142335994686,0.01393194197617306,0.104738997443056,-0.04450787641663228,-0.031755339716272174,0.0708085805187439,0.06638147204517562,0.10409379052457063,0.022267519309995352
LRIG2,0.0023402967774099207,0.013253074704183626,0.027427068821465776,0.058021431713422875,0.031536424057551894,-2.825360757392273e-05,0.029120077396437904,-0.025864076076602537,0.07691697566756744,-0.00857610841339302,0.015562481405660099,0.02082393530104728,0.007975382505705583,0.09014311717516955,0.018688544154449642,-0.058166999005727464,0.01129452495833236,-0.015512579518189094,0.03998689669007435,0.08151809230459557,0.004620954452257052,0.034430218387695506,0.05856701588004082,0.12327302818474663,0.025914966620950705,0.02097550623579316
ICOSLG,-0.030375020068886403,0.0016514316561288516,0.03269600657381036,-0.031730131569102475,0.004287959524588699,0.03775338793855556,-0.006874750034295702,-0.03132471896831104,0.10135092685535485,-0.009462031761030405,0.024428297505913583,-0.026474045435273704,0.022729731869188672,0.022421139791087,0.0018242044684977244,-0.03482119962908,0.02052204595077513,-0.005226192535809192,0.04572829889785185,0.14562052913630122,-0.014613762567908934,0.02848777977009379,-0.057985526947077405,0.08064629073777804,-0.0032368104830517034,-0.012744098613764058
WIF1,,0.12210820243444419,0.009059072488500224,,-0.004152465758708865,,0.08029627503976583,0.124002267570757,-0.09946956951227093,-0.01498062382293913,-0.0257382103222363,0.15016949531890003,,0.06204421206999578,,,,,,,,-0.05587335840316413,-0.012771181759672982,,0.05657475700591036,0.1468719859126661
NPPC,0.10069969269523384,0.0724665396915734,-0.05005157390311447,,-0.04070809645291218,-0.0288237613590477,0.005328996066479801,0.03198128046731997,0.05325497758003215,-0.020226326411840957,0.00953097834168219,0.04992670496147865,,0.0904452353627047,0.034889700743046134,0.007797953411651996,-0.02634946429627207,-0.008828596203246442,0.041982451930894754,0.0296716198461793,-0.034699881949400005,0.02106871035134887,0.05370315716715596,,0.09977312261707953,0.013273056287096715
LYZ,-0.020092113926979537,-0.0519763607815973,0.0981371696163349,0.051411388771117235,0.039250195730119626,-0.005766835902295222,-0.056638808249781375,0.007679742864738303,0.15691259692149248,-0.025146785757677818,0.04490684874143301,-0.135387196192615,0.0033541997881644686,-0.024753904185468075,0.060101144345232456,-0.12368120901440621,0.00034203469710832003,0.09221349172552926,0.020042152120542805,0.029712468465175886,-0.032705159676770054,0.01885353569433856,0.06892020110875964,0.0888115938117987,-0.04238175164406355,-0.01978124958901874
EREG,,,,,0.06272876467323166,,-0.05867231540262828,,,,,-0.04291186077094173,0.009213161351605798,,,,,,-0.03776370891155942,-0.015568994754200764,,0.020133092192081186,,0.039083000390737546,0.0357098946790047,
SPTAN1,0.0373749635619261,0.10340111222921612,0.014049773341247155,0.0135819720978463,0.055627542404294315,0.06761125777947521,0.03128214711801326,0.13421253639716466,-4.479508736349662e-05,0.046129949644461224,0.01007607563236727,0.26045863653300605,0.06462886478400906,0.06169966367624998,0.07516340174000018,0.0921867676757028,-0.013230569862215954,0.08520955683644862,-0.004643365607653331,0.02453666105745715,-0.03301740560949734,-0.11386482891180964,0.04010737435609051,-0.08100979855335927,0.110792880286632,-0.047590802158538545
PTH2,,,,,,,,,,,,,,,,,,,,,,0.01722629591156776,,,,
LIPC,-0.026743728067180148,-0.006956654008386157,0.032795805280528285,0.0016363553612630726,,-0.0018065394004035265,0.0575784449754906,0.0304189547251714,0.0729142167226333,0.02761049754905877,,0.008980858260661907,0.0002295604226060588,0.0012410854995141048,0.04564407611192161,0.005467080277485831,0.0022940834901747976,0.02391747181810496,,,0.04011717199370531,,,0.03627380950140141,-0.04580768579076646,
COL8A1,-0.08132900744151343,-0.08997274752968339,0.08010035669807371,0.0471569194998991,0.036429396291290356,0.0159013676902023,0.006226280891710735,-0.021963312747702992,0.10700887519442386,0.03937954432586939,-0.02627151766098755,-0.02624177391554761,-0.07920814162775273,0.006928665420105348,0.06251483623282891,-0.07358450612168918,-0.017477929221480334,0.026829507738679904,-0.01127087368318083,0.0055754351422422025,0.016739892998756844,0.019257630823430464,0.13496205062613215,-0.028346717336060125,-0.05215688952895034,
GSTM2,-0.010074012068853225,-0.022916666843562843,-0.007356864860036795,0.004478126502291292,0.033394159598485136,0.04465333508538152,0.009009329500467986,0.006016137861229833,0.03968011054301225,0.021900066256543387,0.013140757021675458,-0.008797330270126571,-0.042849924184337015,0.036251508785063835,-0.03750298088346601,0.01738708995392871,0.00856587834445509,0.06784810008090271,0.03180336049300164,0.08947849674408292,-0.0042006476630847564,0.05580745582771344,0.07261903376999762,0.054098025828504585,0.04722108187510464,
IL4,,,,,,,,,,,,,,,,0.06733256724413653,,,,,,,,,,
SPX,0.016134930890919823,0.10285484698194104,0.021479784242814676,0.03939216549944291,,-0.05521379205663295,0.08787351107188997,-0.02203002391978878,-0.04616900717364169,0.005084336578912348,0.05697734133584135,0.055728784835874824,,0.059975281396519524,-0.06981823427446265,,,0.008866640399332737,0.02405998295814446,0.02160041004119505,0.07444699836188497,-0.0748394751699415,0.01608256572175167,-0.03244046496697524,0.028897015983892264,0.030797837075286334
MFGE8,-0.0031670354950501228,-0.10719194010605722,0.02967523601321176,-0.003457597812958276,0.08399100032073634,0.07142251188147347,0.04804364233808744,-0.044663450719179536,0.12003194415288788,0.03555578759260285,-0.010999244563458879,0.09400765602134867,0.009431549839488641,-0.0034348016637069587,0.003030373504430727,-0.012079836008879786,0.055944896646872085,0.033945553511418126,-0.034037840706017716,0.009990995517470644,0.03544866584343289,-0.004617665769389231,0.08916881032673776,0.04293944703709597,-0.0029359281717221885,0.08284212271607654
TGFA,0.022120226938467557,-0.07169825400274606,0.0973006114554305,0.024233784847267972,0.0780284582026895,-0.03561435052411121,-0.07374466548070592,-0.03801133298700773,0.031833767023909706,0.0005370008896656987,-0.02501541796094284,-0.09062360128297248,0.030442736291131707,0.004710975137734084,0.027400271265722864,0.020514409131293296,0.017687910599424855,0.0131193413857843,-0.0106252891924676,0.06488197057836186,-0.025952968325614265,0.006265443811313363,0.03263690820347005,0.13668055033202048,0.03637667136882817,-0.05910159995967062
SLIT2,0.0699074795878946,0.1026390877464805,0.0699495628033596,0.012795761280368238,0.019133881644510853,-0.02681630915226868,0.08951708297889346,0.03680104498327581,-0.08942856356496545,0.0438734933826855,0.07865643220455397,0.14888977023998223,-0.014100388005690322,0.03926359384092973,0.13636543342700017,-0.06819509444274359,0.05255516979453641,-0.03524091333051117,-0.0054749453948462,0.02465721631834021,-0.05987268986478743,0.020861871140361976,-0.017962325839872395,0.06231897721530604,0.06963603212120387,0.08434566157897432
PLTP,0.025484202606917115,-0.04288772724807782,0.031128002955862308,-0.034689225966387204,0.04352229315857675,0.0017919944761779366,-0.04162765721696725,-0.027339932189972386,0.1981375947185054,0.004894345140747256,-0.017101896345257092,-0.20937905450149918,0.05367497056065728,0.03357231478800344,-0.04737374484687374,-0.07255149375857879,0.003472088051160198,-0.005290873635662443,0.007182282412282391,-0.019201173947568994,-0.0025850909926339563,0.06383661122668947,0.024448822654654898,-0.004061362362030059,-0.0229927290793428,-0.07100506754152633
APOD,-0.04328756257256982,0.08732295997652478,0.012329373914429849,0.022621586232071684,-0.026504399434880387,-0.021631325243672308,-0.017297908680728922,-0.05494152361326317,0.004401370947534941,-0.030004292697697447,0.0759126209645974,-0.10875488488012325,0.09899683292376542,0.020973288904780386,-0.09333015487043211,0.057249820830127585,0.1121617059473947,-0.11643056284265492,0.040899155778644586,0.10042743682738789,0.028765462168747896,-0.021974148233031367,-0.006330306932048269,-0.12352594263494493,-0.009497359545494853,0.07572468623081514
B2M,0.07615587847502917,0.011115554248793692,0.057906612459853284,0.015396708613168084,0.04859607233870224,-0.058342373341414656,-0.052094771961541234,-0.08807631844388368,0.20274372081844344,-0.008597373868604784,-0.011636192191627783,-0.2561312059747104,0.091611069692281,-0.03406651064201935,0.08802757964312746,0.00011374276951447877,0.0462828248233681,-0.09834349573627842,-0.043266744983607976,-0.03558365752679165,0.03609074653270311,0.055769824485074476,0.08105364243138667,-0.02080501066510736,0.11386433072915636,-0.11126290733485471
OMG,-0.0009376907817950682,0.13537160764652437,0.05282924703142379,-0.00958847698218528,-0.051388257542816035,0.010105401509869792,0.04359420787303303,-0.019206783487416633,-0.12874613126788037,-0.00157191614272619,0.022746784389078522,-0.028736683955404522,0.049132033780537675,0.0945397075467332,0.039408087761997744,0.0008101626736319774,-0.03446838748540129,-0.0923820916958548,0.06755426873548293,0.09491850543662124,-0.0575456932399759,0.00131319049913607,0.07015137170023496,0.09059889901235359,0.23133226207305205,0.016242504866310487
CXCL3,0.013105542013542458,-0.02822071044570432,0.024684655860179688,0.014073939597604702,0.026223312763113953,0.03429802669443193,-0.011355892446169233,,0.036957693415847766,-0.0037611453960902375,-0.022347272938071473,-0.0790600655419563,0.09401636948304803,0.00024203289092034427,-0.012557528079062998,-0.13458247258633158,,,-0.041707024586233696,-0.05666692164152062,-0.039233222380716415,-0.005515052577719061,-0.09179860607541368,0.007433917922757247,-0.11665346199513689,
CXCL10,0.041153805499239866,0.030610502603120645,0.017155911245662882,-0.019688811767263822,,-0.014589835812565764,0.032367981990846804,0.011918694742348569,0.21013801696846138,-0.018976314922224326,-0.01608851639065592,-0.07089496935594244,0.07645049029383219,-0.041931987573766476,-0.006810163520270001,-0.029286284104486103,0.05033733077208433,0.03914430639000266,-0.03203301792574715,0.00977750751666451,0.019253354026901263,-0.023672140931661752,,-0.0136957959559277,0.05214252531576556,
RSPO3,,,-0.011741401518220148,,-0.07861995108876735,-0.005299438671233419,0.12254432035206998,0.06715825008669425,-0.04292217937635385,-0.017064510952393815,0.007350972624004759,0.16249238791045692,,-0.011225294343040784,,,,,0.01880765407329024,0.08235094598240646,,0.009871559092556376,0.028750709898610016,0.02380326465378575,0.14595397557889359,-0.0589301694354993
CORT,-0.02827393666861298,0.028468379084070756,0.01861974538390931,0.012433160563394153,-0.07953092303685486,-0.0097465686229806,0.061515843404495445,0.018410657335619307,-0.08057404147895313,-0.03463600931106143,-0.03191394983863446,-0.04675206690416404,,0.06447207263563623,,,,,0.005774009198469532,-0.018720688897240365,,-0.046093236410599966,0.021262323578313955,,,0.1311192787899703
NCAN,0.054174946433447876,0.01549758611600707,0.10945035096947146,-0.0010911647490790082,-0.010617501181631286,-0.0057185934206093565,0.0710530328892345,-0.015947805841045288,0.13140677767332168,-0.01844663439032327,0.011151441638038804,0.17966382056519462,,-0.01791164000346277,-0.10869430009020209,-0.011875839776666492,0.12609554214577334,-0.06789699179947575,0.06623127141522885,0.13510854200899042,0.08156194928496585,-0.08126301374822865,0.08771271362291153,0.07707338761375207,0.1111744294023123,-0.010556360654091785
PRG4,,0.09825497329727817,0.04191160648120739,,0.04730814659586134,-0.001533773039058073,0.005892378472625149,,0.021839348058860394,0.07382767624231933,,,,-0.01076022581759265,,,,,-0.004635676771214645,0.03388219004059937,,0.011936739554841699,,-0.0028755288498756915,0.002431648918798404,
ZG16B,,,0.0012192392299976936,0.04601042157679186,,0.0027703742352941834,,,-0.01672934270129238,-0.023843406207097254,,,0.008424225467435974,,,,,0.001907276478369438,,,,,,0.0177623879404635,0.0045673221010865215,
TGM2,-0.023840669791625104,-0.05609799145933903,0.034201807328245064,0.030552990184251005,-0.002765231226860575,-0.03673567774570785,0.010907819815957473,0.03423099285570231,0.10321040905192173,0.01587529268932791,0.026910620325205834,-0.030964893909903184,0.08103023556941104,0.022832379315978767,0.06872825354210783,-0.010767905142022523,0.010339332596470983,0.08110389388296535,-0.15454777953576634,-0.07223422742670141,-0.03332552906314092,0.03353071990059825,-0.050527322236105426,0.07197692647974874,0.023523784627617186,-0.051733222586434355
VEGFC,-0.06716935588054644,-0.02409808430722244,0.026428859198583534,0.022223635338060505,-0.04086126918875411,-0.012120565229777697,-0.014440673801396133,0.004108860487118458,0.011196450954762955,0.020454443145885327,-0.014604754548060869,0.029603726959068582,-0.0065269097298129896,-0.040544217273840534,0.056747446299014716,0.06204767655373846,0.02925054446526298,0.020863636680055815,-0.044953836790506504,-0.04531309471191542,0.033363729803140306,0.005088679350680649,,0.0008303578954070456,-0.0013352881761407591,
WNT6,,-0.07963476714717474,0.02456709466794734,0.023231493686251756,0.039893026429457586,0.0012274336156532907,0.00629905457005727,-0.04293628846396546,0.012451033231647283,0.004777457031943113,,,-0.04948513561041407,0.04976750001197252,,-0.014580359341183999,,0.056722992780765834,0.01843500148975888,0.036802831578867115,,0.007832242145692052,,0.06807223067557612,-0.018405279618210812,
NRG4,,0.030353048327514114,-0.03428237211325911,,-0.015438312026795077,0.024657592522098766,0.0076726120008182375,0.03499099349121378,0.021830351641417556,0.07100761066180061,-0.04569616227228653,0.07463914178310274,,-0.05142599145442878,,,-0.017504939876504266,,,,0.04829369964400443,-0.015468847057466314,,0.07007655137797758,0.00034327605395423566,
PMCH,,,-0.018984362083991558,,,-0.010799179779830283,,,,-0.03788573394291125,,,,,,,,,0.004234395061959158,0.03311878072799615,,0.05685791026208877,,0.06444693866231375,0.022849348207083047,
COL9A1,0.02601183754759172,0.04335074691156117,0.05158084843861786,-0.04321497860222781,0.08009805356883222,-0.029743086565155046,-0.014889779464687522,-0.07977161670239959,0.02248733016868118,-0.02681551376423831,-0.010236526131349693,0.08585751793438427,,0.023023088688186966,0.06706753314784059,0.11264502701802837,0.07712393989237326,0.07280737861266043,0.11303355455723776,0.07568251258019575,0.02935919690888581,0.005813592785974537,,0.03680618568116982,-0.029928528137747743,0.02103724653092754
GDF11,0.02008085861477871,0.06340260702996715,0.017372488245086932,0.05067553086713531,0.04163011832207318,-0.01415951256352104,0.07879649282568145,-0.04412082980158994,0.22212402056516822,0.02721136465759247,-0.004494856685125814,-0.016905204043287592,0.11305175090841345,0.08431387227628273,-0.014254532386897978,0.09119746680849371,0.04352818645625147,0.14089668508525657,0.04570673743329552,0.057656618516524503,-0.031742463487927426,0.006416221572675118,0.015239724661280133,0.05854558506034385,0.027545756382026585,0.04387748316818735
RAET1E,,,,,,,,,,,,,,,,,,,,,,,,0.0227474999160533,,
IL24,,,,,,,,,,,,,0.023378828644276352,,,,,,-0.09328884651207121,0.06257038140539206,,,,,-0.056067782299682636,
SORBS1,-0.009743477847825317,0.05640238210697408,0.10128649476719997,0.030140363862163563,0.0629880385983659,-0.011480715823536486,0.0794847127783453,0.015223828663465694,-0.0025011098629046545,0.02955769496145981,-0.018821711855352533,0.012500678306653556,0.07686156466344045,0.05225672583437351,-0.03729660474819217,-0.11007676766492887,-0.059509757671975784,0.05558635658839933,0.054995477861134845,0.019387663025888423,-0.0402306898431223,0.04297399116063579,0.030716292014157605,-0.00870365780707267,0.054620395893629145,0.05112456051261501
DLL1,0.09105319130532688,-0.006725605512476552,0.11117179502543217,-0.06791690881929105,-0.014365102953786842,0.035042609063250865,-0.026352945153008744,-0.07404438427574209,0.15154846611449407,-0.013901227160378888,-0.028842507774949382,-0.04770017235977317,-0.03257567293788693,0.03485799378799021,0.12693783160120242,-0.007219598853171633,0.11628689237590258,0.08424686188075739,0.03141397979354038,0.0390930104072183,-0.027740818953075962,-0.05187743818987047,0.027672931885675534,0.046256061599243024,0.07758813644180435,0.025332296629673512
TLN1,0.02847963795779711,0.02026158620501145,0.034401812488906086,0.032962503677010084,0.08137068374072119,-0.014801406710271598,-0.03620829567292053,-0.06015774191844868,0.13054547740977995,0.014925004036693477,-0.020088739547288386,-0.13746895609120494,0.07649000184157692,0.01299502126765724,0.0350597405155966,-0.030156738827792143,-0.056856165376921945,0.051210842046629075,-0.029586003529588963,-0.006524513455595109,0.018793160273139962,-0.023693149357891793,0.06316137801126287,0.01762394137967238,-0.003576816805867381,0.022132551096238857
COL2A1,-0.021067233879474987,0.025423256855698358,0.022948405811702623,,,,-0.02699048510401022,-0.009595110985039552,0.021639336669645317,,,,,-0.036135807278898646,,,,,-0.024785122896184675,0.03060849807516837,,-0.03832151097145799,,-0.046986985878019846,0.01971296728560725,
SHH,,,,,,-0.05196960721571705,-0.059415185265167515,0.029343976118854885,0.053690381551221335,-0.01653779971025974,-0.006417740145229268,,,0.08532685876158493,0.03629696242850469,0.03856134246835024,,,-0.038297106293173545,0.017700202089761228,0.019699081021509933,0.047703655162701544,,0.014477108364507604,-0.04810899391082404,
PON2,-0.015167759317823524,-0.0023402585127570634,0.06543053154596168,-0.04013246015240246,-0.03828750442973437,-0.0028959239877517566,-0.02775539761092302,0.010315486255788965,0.14178684278360976,0.012119346422137826,0.010902491536778958,-0.08065515882213155,0.1783317602695702,-0.018034056160559676,0.034826977037923916,0.009356114481907526,-0.018300315125983475,-0.046443850913384384,0.06222576031755972,0.037743993799189336,-0.028015318374886824,-0.06433069537767734,0.031767009510389625,-0.031043588795246133,-0.026338049851702534,0.08030944919522476
ICAM5,,0.12070061003195595,-0.011311934117918173,-0.01592092812736416,0.008497880659532693,0.030844233379039333,0.0757175443718734,0.10695454321802639,-0.11783724135605218,-0.026125738473769238,0.00021333729118973586,0.12694201814935574,0.02202758867614917,0.017550254691835587,,,,,-0.013593067705048454,0.025607447237699508,,0.03158391947490718,-0.06773537784308965,0.06996920162623244,0.08523000976929036,0.07489548075338662
HPX,-0.029099204799572616,0.02500996136547167,-0.0034474652732193038,,0.05414831887156215,0.01874901746374722,0.04439235168012385,-0.01640457228850778,0.07531415902011517,0.0042217167311909085,-0.029694067654228915,,-0.007922902629180063,0.0257612414345729,0.04906376811084025,0.08496374801418416,0.043262384842768876,0.13140726155565352,0.03356998703745088,0.007218556393236733,-0.007963384902479264,-0.026044070966696916,,0.016738422600855833,-0.03206559714318236,
SFRP2,,0.10589512361055835,0.03144247023529501,,,-0.03372883290866468,,-0.03416153443984869,-0.003206087158747038,-0.040245762713155164,0.03628011516003509,-0.059215578450958435,0.03740356865615842,-0.06726236699521006,0.01328513628108501,-0.029223584336224098,,0.04729367781496337,0.08204334815941963,0.11199651923359935,0.043809125116227234,0.05193747153632488,0.002741441342506196,0.08206738796462908,0.03148475237876344,0.03539900907730583
CFC1,,,,,,,,0.04493476474599794,,0.017076095132255924,,0.019435619884400717,,,,,,,,,,,,,0.02304085130861923,
CD70,,,0.006795746773014734,,,-0.04081073714080018,,,,-0.015736724641009572,,,0.052590824514012924,,,,0.04131461748613477,,-0.05845306961032582,-0.013305683522098634,,-0.027387343736400057,,0.026591186261762403,-0.03812727677664771,
HP,-6.230997661362739e-05,0.09731307170803408,0.005176847024056019,,0.035304910667626054,0.005058297128645106,-2.111853830545366e-05,,0.06886255282556553,0.046173185509467154,0.022173614881591325,-0.10915458427978693,,0.03644688530994323,0.09704112514730895,-0.046349964467157244,0.01985834388208426,-0.02958597199624334,0.0025328432736842566,0.09260055876864731,0.06121330654992495,-0.012512051695086773,,0.018885765287351863,0.12616205234149058,
CXCL2,0.026515267064823985,0.002418519200664682,0.05243094034905057,0.005428952821259993,0.003527175882422761,0.004004335410100807,-0.017215994890595433,-0.02460634234611508,0.075149166200351,0.026965836755683585,0.0043761123744495015,-0.010833218184537868,0.09697192998476623,-0.03130693644866959,-0.0637287611292145,0.009545656215132146,0.052520208215244314,,-0.05495427740105566,-0.04718686743097256,0.0430462817564308,0.03577378690843257,-0.06466445917433798,0.1039240621335174,-0.048478035954210574,-0.0012817399122192741
NPPB,,,0.03756578311074238,,0.026430758147156515,-0.050947491481747396,,,,0.015598763612238786,,,,0.0416119112720268,,,,,0.010640066040775123,0.029291138669712988,,-0.0207457747782408,,0.033139986941818,,
CCK,0.09519742653958761,0.17707757732430074,0.06885748532870911,0.04007952031667703,-0.05813111814582462,0.042166471452685136,0.06766008353858392,0.14193772641482508,-0.12613162862558905,-0.00897173591944582,0.0347766033331212,0.2624077073578964,,0.07442144645546038,0.06508325087252512,,,-0.012795158656122097,0.044085101091511154,0.11617289522807582,-0.02242184705529162,-0.0034290368468739485,0.02395260165511131,-0.002269112023827138,0.18266217719132902,-0.014138713053277898
SEMA6A,-0.005675492981946186,0.02656572869405327,-0.02169045914781671,0.044131028044572765,0.019244659074243203,0.006596950781335196,0.0177158673139828,-0.07602120876177532,0.09498046698627828,0.02694059016709556,0.011958733785149537,-0.08133153906854619,0.03593696445711628,0.020993643984131186,0.027828970661376008,-0.05380555174489776,-0.06158167887476069,0.057140665924132444,0.03873831852699698,0.13620843451857928,0.0616124929294013,0.0114032434059402,-0.0072041541215230485,0.005231383652099018,0.027454649799609473,0.07717818290043378
IRAK4,0.04254255048528396,-0.02518087584474474,0.03014661784097944,-0.04190246087654481,0.107231327335562,0.00883695304759526,0.033804695822989374,-0.01903843603283682,0.1125114051880726,-0.01974517637982803,-0.00900100597693484,-0.08623627048043518,0.031054226791306268,0.0025511885210352764,0.047575011513029446,0.07976085690545826,0.1285245891154614,-0.01181667636290782,0.013435750159271821,0.057323964923921285,0.06511246535064948,-0.0031176073754221483,-0.024628072554939477,0.13844104229623658,-0.0025798493816207016,0.0835802658641307
GSTP1,0.006594682279351225,0.017368180840300795,-0.009684424043480078,0.016317292892889863,0.0411356386327245,-0.026844293066822185,-0.03706309306636152,-0.08157763649454788,0.17777436914307082,0.011936991191227618,-0.02134136062567802,-0.21872057812264215,0.01209069882448416,-0.028236317669442415,-0.017103711509170033,-0.05594052398489418,0.1185621578299516,-0.0675429218075201,-0.07820674041900133,0.06503562582248426,-0.04871406477748729,-0.017204298580612672,0.04926696863767807,0.022114860505067748,-0.028749390084159127,-0.00782793780471272
VCAM1,-0.03146842654941851,0.0007096799558626521,0.03572717778507796,0.012515534630655587,0.016412502447108953,6.472702519259434e-05,-0.029831554817435015,-0.041795741534845256,0.1934189705287888,-0.027385203399829593,0.056530162888535726,-0.09851125405200296,0.0016267931871700237,0.015425577937939033,0.11417414675938047,0.022443675479151288,0.07406317973299299,0.036669952578128384,-0.02068361938079633,-0.06675030150966206,0.04186050592615836,-0.06447257864000264,0.09237221509418447,0.11251099116953282,-0.07560388559255878,0.06751773350327576
NXPH3,-0.10521011264021138,-0.02196824980525724,-0.03065885030554129,-0.00859736314936584,0.04671588200861502,-0.001754872014829597,0.1248727247048025,-0.01652661555288013,0.053245891927984394,-0.005701360120403115,0.0113167961372783,0.027540378379365148,0.05271058331577338,0.047464990934698775,0.007637691357956149,0.013007267821846632,0.13287855227704018,0.08590647425304601,0.021166644839197977,0.02923556099422705,0.10078742015082595,-0.07038495708366761,-0.0017216717353832516,0.09547133046407225,0.01161483523049334,0.03379068820082324
MTMR4,-0.06184291505312182,-0.012209084037638566,0.05084388975953235,0.06479948212121026,-0.00018152611996197722,0.04750124009519506,0.00045492910370534127,0.028035465973262234,0.12231936884243222,-0.042490741065934104,-0.0012639655431360972,0.05029435297997176,0.04473751530467226,0.03965857319065718,0.0340159795153762,-0.023771397044775978,-0.050982070482689865,0.060986554475719316,0.08274950940014796,0.1275393178727045,0.03377253531527047,0.01346338872170104,0.08587822175526078,0.08320523703475277,0.1268508135001756,0.1624686152558241
LAMC2,,-0.017103072003294847,-0.0361591390342552,,,-0.018121512377613197,,-0.013995021117679737,,-0.016275352963387522,,,-0.014847280540688668,,,,-0.0012466757920452933,,-0.08118295936710232,0.03356155084374455,-0.0076978968421361395,0.0015797565150425838,,0.07309183855768844,0.010167712809967342,
IL10,-0.01791441589083748,-0.0020589738616938395,-0.02236057278595671,-0.00238093666145494,0.03961819096114747,-0.028029203339964687,-0.04908889240257636,,-0.004372951037188961,0.027570214778962668,,-0.1497433336806907,0.055070295404904886,0.009241786906078565,0.07831723857527467,0.11573067578100626,0.06680096132965879,-0.0656794681843659,0.04540206790742783,0.015362902076975249,-0.031121042786473978,-0.017472302436984073,,0.07875119654010661,-0.040600692125277525,
SEMA4D,-0.05061230683218844,0.07974251011046334,0.039583917984649275,0.016126267248451308,0.024387725643593858,0.027491292533559458,0.04127671938070438,-0.03646665130500864,-0.03152787501384375,0.03680322375098612,0.038913639689894364,-0.12485540721405947,0.044436453193244796,-0.010445728799772404,0.0002786829861723622,-0.1054793179707293,0.016581595243727994,0.008889959729216105,0.0946336961973278,0.18174385902283555,0.012344189270303793,-0.06652720713421398,-0.013774675571328042,0.031409698996026955,0.10611470591665076,0.004516686959786591
TRH,0.03240297905909967,0.06213260063154786,0.012731575037813345,,-0.05385082189487877,-0.017765075290789363,-0.007552739063263456,0.01442663017826003,0.026957564032860287,0.06454810291230069,,0.06371006030713913,,0.02009865591237256,-0.047400878835021275,-0.11299977716413562,,,0.045553352573697414,0.1262820226126443,-0.023469159688874485,0.020219888248415523,-0.0344488185703028,0.0017097843326775398,0.042814709774737045,
SEMA6D,0.02483090023989557,0.10839991685868615,0.05812093004520212,0.030842906785038718,-0.027119315564177477,-0.011097637413953455,0.041805666937617184,-0.07259130371900625,0.10750116864325934,-0.003375765309132677,0.0398469340500614,0.032122414903353325,-0.02174007334482592,0.010388060181167053,0.006781930524901943,-0.06590784142134581,0.029966491106344674,0.05939739165116495,0.0075748732253423665,0.09816443036191831,0.019807133982748883,-0.029582247348256072,0.10003949459557106,0.0206368152410168,0.0634419694156787,-0.03039894743066058
CEL,,,,,0.03734386718860668,,0.017545865872504632,,,,,,,,,-0.04753366500700223,0.051663079742452996,-0.026328779663671583,-0.04524999644233109,-0.013979260630856156,0.027876217049451663,0.062483855102484366,,0.06241918586055276,-0.024851805149180898,
PDCD1LG2,-0.025728953842986107,0.00654525209017208,0.03616774444268594,-0.045384264047227764,-0.020444383322143142,-0.06156959892645798,-0.008976500329393981,0.053199102407577,0.05889284351482923,-0.029687545747046164,0.016992400410450553,-0.025253959088950596,-0.003668904892035712,0.02508558562835064,-0.0722955595536446,-0.04818073769435435,0.029219154582219277,0.0034242213204478864,-0.0331381423892054,-0.028406240843475716,0.02307920228670195,-0.047153947112873046,,0.14752851182344986,0.024505327006068306,
SPINT1,-0.041059085996491794,-0.04567981592271933,0.08032282097351358,0.02492486644369169,0.012723794693801856,-0.015407798132952722,0.005826171642275495,0.03147943148691731,0.06664879338491952,0.015488444740663368,-0.004817599154962059,-0.005857565526892557,0.04912790290784788,0.0061887048218298496,0.00026347342536047467,0.04234984948223448,0.09677714165021715,0.06639921283392337,0.0024652536700332872,0.07237161468414664,-0.01235111606992251,0.02717844077169183,,0.06694098102875659,0.06264617534530476,
CTHRC1,0.036714201786087,-0.0016626733391023973,0.035824729586014875,0.01807950734821983,0.03248604661847705,0.0301760044426878,0.07828531864772338,-0.1126178076192857,0.15279482382855913,0.026676373857777064,0.03491094838087117,-0.13687298093544387,-0.04725486411359817,0.011318363060232603,0.12722269452675244,-0.01608088297594135,0.11664399542180647,-0.0012024818908637957,0.01614006186645525,0.03810145409723173,0.08535584213493587,0.024249047108842247,,0.08703600810690121,0.08788895102632241,0.0035281547664076413
PODXL,-0.0312564559707967,-0.02766407924240631,0.05806983092879877,0.01642225211880129,0.005493956557329039,0.04108186001314435,-0.004480022379639889,-0.012746500900345624,0.2165440931664115,-0.0033187529050173028,0.012374507770694865,0.05472991322366229,0.09871913595605661,-0.0046708062012249885,0.06124811682834051,0.06232620565306869,0.014652444980192034,0.04252520990655581,0.040119943482591985,0.042906991428287085,0.002960757508398696,0.014516036469919372,0.015319327102171371,0.05922433449495424,0.07735444790308042,-0.010151782583637968
JAM3,0.03259184427224758,-0.04704262779573817,0.05163853147490184,0.059713401377794816,0.06664547412484736,0.039132390739152284,0.010845858332554513,-0.041863916789859984,0.13301058850432174,0.0011190271788090985,-0.027528973061868547,-0.14067052804509073,0.06938918496133556,0.04649023186487945,-0.07784709595170775,0.04056003195535581,-0.08800861397660963,-0.03648070836460879,0.005898861369074513,0.05830031231640432,-0.03875097573228585,0.0011208460793837797,-0.07655980838504668,0.028950807524957302,0.03959912555872402,0.053615509968598825
TGFB2,-0.0014293761901946192,0.03291832800052703,0.03374978494960823,0.028621971465051483,0.11485623666686129,0.0707173894245234,0.07565142908293267,0.010273560089619087,0.23102341010840385,0.026962839868190584,-0.026290989235720597,-0.028946607618174143,0.07466338901642802,0.03132526402821211,-0.031134576247269202,0.01667319788214276,-0.13327309014856598,0.0822146225340522,0.09098177445752795,0.13130406589963162,0.05248363379654869,-0.04754059428067879,0.10842851635974876,-0.05395962862770613,-0.01711542974931846,0.08881979858467039
COL18A1,-0.03471060086469135,0.03644130555205834,0.08537797185851496,-0.010634148066156368,0.0357679863778652,-0.01837205025243665,0.06463652637292357,-0.08351233813430879,0.17793183989560096,0.03276906930571897,0.07953607534952628,-0.10446615582813754,0.1717176190189838,0.08458027517320334,0.04251709677891396,-0.05311671431044695,0.0449552958746881,0.01829536631902351,-0.017866822917103398,-0.0985066576012241,0.02288061513788177,0.07786541736256519,-0.03364911924489602,-0.04310681399516039,0.10834788508450813,0.024964447684802632
NODAL,0.081130389176601,,-0.001637146223500373,0.03257825405398635,,-0.008164614737676879,0.007588685959281899,0.014765865513940036,0.12888361329939999,,,,,-0.0030435188773421827,0.030738302350876108,-0.017100505639940807,0.05589096212910412,-0.006773005561437728,0.01850802342184432,0.036291313527471114,0.005108606067131639,-0.008077366553653742,,0.0183695460070573,0.04295129246260705,
INHBB,0.027897835861431342,0.02317503451982478,-0.007978950521720278,-0.01334810259526752,-0.023919097467967984,0.00012360229135968003,-0.018545874331853993,0.0012867965836114484,0.09834682782905049,0.033338940597601306,-0.03548967203637241,0.02827446201402704,0.12110198868753692,0.08312106182795666,-0.03529012530684045,0.10479999820741337,0.04138820817762914,0.057856004958706395,0.020365614861432346,0.013073454997577444,-0.004664906221652148,0.060857687644310286,-0.039676398610550015,0.14519342894297366,0.02894984808290045,0.017555765324020728
LCN1,,,-0.011550217733890696,,,,,,0.05382951964829502,,,,,,0.04256801457205987,,,,-0.04888850525473445,-0.01283170485964642,,,,0.05758794865177798,-0.010701874359316167,
ARF4,0.04281446770040764,0.010531736330498618,0.01649024509994287,-0.028918470734508664,0.008708016286539276,-0.03857024380730385,-0.0644261576485253,0.004501118951233108,0.16116227568043112,0.02223229006885908,0.012048177969373734,-0.05134019268628726,0.11868684585131178,0.059316031818474495,0.09074648150392,-0.0484922261544067,0.10643383095737476,-0.005309929673691397,0.0533237780906167,0.028169378095406598,0.012484670202880995,0.009126155994771089,0.015016656126718896,0.03253091246896425,0.016937060986193204,0.0758941420366466
CXCL14,-0.026482091763490836,0.16319306421789487,0.04869411490758978,0.0248856661460061,0.11138439245117829,0.011521606614217028,0.05427771401075309,0.08009615720060019,-0.01771723045552605,0.007968068059669707,0.014698930031444343,0.05646824214578293,-0.00654645691911309,0.012331785050161347,0.09149156946230078,-0.050495187193026744,0.0757833769798695,0.04375144546290576,0.024569277695992275,0.03173201799160872,0.001607561980711482,0.01781889262042424,-0.03799215517035414,0.060741975201026185,-0.020146763457921858,0.05734659850533548
LIF,0.05752657949745488,-0.06346701377221475,0.024369566686082183,-0.04976860966008893,0.014758993419491597,-0.009002172620860808,-0.058484822789266776,0.03169744291372614,0.042043976971765956,0.03436173921516699,0.005440743180130217,-0.07696454660922936,0.027073777063466687,0.03690471626429894,-0.00448258312288212,0.06483550193779088,0.1137648778179004,0.0191952977550269,-0.024149977769022637,-0.012123528298023371,-0.0465783165314862,0.007361775576793417,0.008582143576712272,0.1395100482304694,-0.10850645373840359,
IL17B,,0.0051817484044834675,,,0.05830230651860613,,,,0.04102822318643342,,,,0.09949052436042093,,0.006761905062468519,-0.003432755443370902,-0.05390015495110045,,-0.0007138842914372978,-0.025523933250894026,,0.024624396175812215,,0.012474380106972195,0.03945492059383588,
MMP1,,,-0.015451600813651054,,-0.06773445045258847,,-0.0571583746481575,,,,,,-0.09882407561274519,,0.0880740000529366,-0.11270410618062278,,,-0.03723020008212996,-0.011063850209635443,,-0.015944642434238522,,0.10968880372590355,-0.05513272061967069,
MATN1,,-0.024795917139913685,-0.022776792045933705,,-0.003316262581056431,,,0.05214771534465322,0.007576668166356758,0.01072641730986892,,,0.00035792751246881897,0.012409750256084007,,,0.07147400823187644,,0.04101223429743132,-0.013551758833449662,0.004745043824311918,0.022082122066470776,,-0.0115929710729301,0.025358481290131022,
ADAM28,-0.016147039404926886,-0.012496764984655467,0.026093813988560935,0.01056790069779299,0.07336006519505643,0.0605850282876944,-0.012976285535536746,-0.006212119394810718,0.06614728370834476,-0.011473683727635506,0.006163565353274743,-0.0717311920113375,0.03826744758493403,-0.026698758338831053,0.0051541855024630325,0.04993920178882801,0.02649998713095049,0.0471431201335265,0.043148824441304974,0.02158956584162055,0.019695793883298195,0.048981703572200025,0.07227303401926581,0.0729792587913957,0.0729848548962199,0.008255448088568082
TCN2,-0.04057189667898443,-0.056053619258021915,0.07288593589197041,0.003412578217354502,-0.03976334730457275,-0.011091398260510353,0.11195905045567377,-0.023746272700320422,0.17601899852637468,0.05964723926639976,-0.015887775947606188,-0.11034610352817886,0.054952608141820306,0.02933434946176417,0.04753489625928275,0.11623492827940032,0.027681903872674607,0.08173844358260944,0.022277414598633406,0.026816776298935974,0.05604243158364166,-0.029605665940834823,0.05885360087658225,0.027655764469993665,0.060437597572789444,-0.009464059461615274
THPO,,,0.04971497486907654,,,0.0334451019272854,,0.009694416154514983,0.07552618954558951,0.053604499516529854,-0.0019286703637559867,-0.0333308182552618,,0.011082178559212202,,-0.05370494916582725,0.0017875154927045568,-0.031533143658303106,,,,0.001499388764831049,,0.05934072429741977,0.10096217863161282,
CUBN,0.026007515914264097,-0.05505746945263797,0.06550300106765643,0.028612262859255534,0.03619736643444505,0.022772979893789506,0.0025463245384728652,0.006487067899771778,0.08521833291031759,0.0004267943507162983,0.012208054501485547,-0.017494613775361892,0.06495993291391107,0.012317508907346675,0.04368504651316864,-0.0765375852105314,0.021159202096003134,0.0789699066337093,0.017756449427666132,0.03654987992298131,0.06162857162850453,0.04248143090982434,0.07064563378591901,0.08938924505221206,0.06400975291080312,
TIMP3,0.04736513044622048,-0.05834370861451091,0.03314169214216322,-0.034846736161099075,0.06853784290000128,0.044665847192300635,0.07055726354578923,-0.012531068372226641,0.11072830804751481,-0.012708527884889185,0.0007940909745188663,0.009162792353384448,-0.009791752147543074,-0.00817875070970211,0.053688601457382794,-0.05949893213412567,0.12859401635023196,0.06915652766076447,-0.02251988027419954,-0.01647968105851715,0.043334202602367054,0.05400964886207492,-0.007735907566245529,0.026958962570747848,0.038077047681978185,-0.036659704467545684
PIGF,0.03803662013054439,-0.010984746630428005,-0.02377787290614091,0.011196586948178645,0.04655901820749866,0.012941496057213593,-0.049062339799600056,0.03252325439854885,0.09885616144569397,0.0067902997425713756,0.05559347334936665,-0.008106444261823584,0.0971870386707535,0.016386152193931577,0.011435334146958737,0.04673939376023416,0.11168215637638111,0.0013742104855416716,-0.005571714746313894,0.03040774784815874,-0.05255913400627415,-0.02321708920496039,0.08868229232773447,0.085219427335036,-0.004087382735128007,-0.008102786469318047
CRH,,,-0.03318031494110924,0.1286488372952738,,0.003953994233206901,0.03546509586576991,0.008243150360755945,-0.06158324282663356,0.023149785424671353,0.034773805257139294,0.052375882786329674,,0.05931089476485522,,,,,0.04403335793974782,0.01952409785655525,0.04860880300714018,0.04818410047168063,-0.014518364326265899,0.0441436284005712,0.0703656370813951,-0.040707055228018374
BDNF,,0.08277303184965651,-0.02070472376915435,-0.002120010876038148,-0.005039514867124332,0.06892382977412717,0.02083331489761364,0.050693516646678954,-0.09452825968745208,0.008265591256833332,-0.06960796338359389,0.014245190979718422,-0.02382078353134604,0.00340931211412171,0.024255315224724298,-0.0508715443832738,,,-0.016935213549641035,0.01791753165903113,-0.01776779899844089,-0.03192133023062824,-0.013383726421263788,0.17171133115120235,-0.004794828345150228,0.10432697105437884
CCL5,0.007621708925033074,-0.07537829415155,0.0421850663343736,0.01911363402626351,,-0.008200465805864532,-0.0456546703775759,0.029504514231323102,0.08383687296037179,-0.0072054125725847015,-7.921030364814265e-05,-0.05850378234887386,0.10505762344307766,0.0030840335720700215,-0.05853427537608941,-0.01979138978550516,0.08211797546645903,-0.02941191309280272,-0.0033378473614088314,-0.010016121320548724,0.02016651551956912,-0.03705131190863908,0.07480111138531165,0.024615913560373095,0.041394559422886106,
GAD1,0.05847218692134875,0.09017992700012105,0.03260130732849812,0.05493361242646412,0.046766880412820296,0.06271350720068752,0.09631764715086136,0.14093175596050656,-0.05701921217828839,0.06010475025364972,0.0007118438059787536,0.17483539646069557,-0.05551770391287532,0.05823798105091078,-0.03299997392672759,-0.01771275457704531,0.0720851894234978,-0.008737820765560275,0.0395356546222405,0.047612361163854255,0.04209859702682762,0.13588334013998218,0.04609351866021298,0.07328651988582847,0.15248815496011653,0.11678161763640735
COL14A1,-0.04372517149902902,-0.013770345794483945,0.013213008158932579,-0.06352696333075385,0.06493821002898643,-0.004203987378342158,0.018662107222633995,-0.028367385815572688,0.06495229323304597,0.011309567346315583,-0.06254850629519046,-0.08250018163948292,0.011076188018900477,0.027550199203740515,0.01877021084901172,0.009432966546196388,-0.07953349101113709,-0.07196261309141123,0.010946388725071778,-0.0332828439310019,-0.007990130347726372,0.08047819428983674,,0.0862214855631367,0.025440686592067385,
HLA-A,0.034145138980846555,-0.04112692225399428,0.0006495130192754364,0.07878638510647273,0.0681698679724013,-0.008513782838482583,-0.05464391702336262,-0.07295494406216459,0.21767102627679472,-0.008193394981377389,0.0693689943016575,-0.2409588513511064,-0.05839658488086263,0.034361952495423016,0.08960681797368293,0.029190753467290383,0.031168427010348592,0.03951821952314965,-0.058519769229155805,-0.0673713046623536,0.03269232846668542,0.09983564307690777,0.12594029567457218,0.048396499674455154,0.045498664083466096,-0.01177111317401346
CD5L,0.03651616477903089,,-0.034102864041678595,0.09170760143465123,,,,,,,,0.03695779373622089,,,,,,0.04674442317209766,,,,,,,,
FGF18,,,-0.05146296221871511,,-0.046225048045472054,-0.021164045016521943,-0.027319363427075347,-0.012126385034038773,,-0.0016265936815929576,,,-0.037678428752345304,,,,,,-0.0020485840506155044,0.011259566881216274,,-0.021065974094916017,,0.023497018689080107,0.017469556361226234,
ADM,0.001289376757353503,-0.10803504943718965,-0.02804240245960562,0.01480435006163199,0.031581403858366566,-0.010483554613099763,-0.06483166883077415,0.024503912938380334,0.15406203212014993,0.02219953569504506,0.026609372348633076,-0.08269504414691035,-0.1626885056429341,0.04256276012581381,0.017154360887518184,0.03813845449337111,-0.0230088453482185,0.1510806090548837,-0.103780346665678,-0.06226888068038587,0.007536237393120567,0.029472505930521437,-0.023456281863545984,0.1233147772657742,-0.12742868110348432,0.06898330890943494
CCL15,,,0.011944884619862994,,,,,,,,0.010555740092100153,,,,0.02597669488135066,,,,,,,,,0.019668761732827382,,
GNAI2,-0.057612982557955224,0.021973332430304,0.06935437823972833,-0.01580121616012025,0.05185418472701907,-0.016260780697149996,-0.008923681948112785,-0.09394639293977129,0.14886074645039274,0.04150005548080356,-0.01513081333970268,-0.20938866476510792,-0.03248575201124352,0.028533928991692683,0.0013223452331325787,-0.007027836099480289,0.006066892421203116,0.04143380806034008,-0.11262985323156062,0.03234251295764657,-0.062231556061425386,0.055225746310218496,0.04629557590569666,0.02321521046375879,0.08759430862459631,0.026625978812464285
HDC,,,,,,,,,0.06913923455530632,,-0.02180548425359491,,,,,,0.04128697976135346,,,,,,,0.0634151424281921,-0.01514114435766266,
COL11A1,-0.025851128746675566,,0.0492252635699142,-0.011280519827670464,0.05572234870879778,0.02056331349615831,-0.014708258475445235,-0.0876770156810911,0.06526493553613068,-0.012801722619961655,0.027037766312997064,0.027180445569099057,-0.04786584427766803,-0.04947729987407212,-0.008630033185338145,-0.017704650525036548,,0.042624858192946154,-0.04040347381855364,-0.004984239904471871,0.043393447084220174,0.0826138756181942,,0.06191286651104795,-0.033532092843700914,0.11638427624340254
NUCB2,-0.052268117938485514,0.04169093673300105,0.008076094563926498,-0.0037637848155127438,-0.04191097189390079,-0.04142276190092858,0.05337239928390026,-0.032136886061101794,0.09743943755700854,-0.048636879824262784,0.02394229113316803,0.024838736658404754,0.051649794388821814,-0.016176414849538495,0.047532162548324194,0.0004506470458215025,0.12932659437389354,0.06675382022534233,-0.03337446382072047,0.013193272111757246,0.00026417140721279246,0.04009628049252502,0.03129291623781129,0.10569003602830074,0.031097837095695816,0.03369817929736166
FGF16,,,,,,,,,,,,,,,,,,,,,,,,,0.10648676036812958,
CXCL1,,-0.06378779995459694,0.0659067716595245,-0.0026540891334933133,0.05856465649229801,-0.03508420968574901,0.03041221510193282,,0.02215141730075777,-0.03454764917250435,0.056396737958895146,-0.0488926297512455,0.11732619208474758,-0.024099738605949727,0.02136086233632688,0.15621266039057877,0.0973213756664604,,-0.09603703990368234,-0.03633022887926884,-0.011239527911781183,0.015130537286808333,0.028724092137367787,0.017701486685477618,-0.017875322622546354,0.1279282058019216
VCAN,0.04589893507675576,-0.10083806217551816,0.024739528822327536,-0.021179016164001415,-0.036302307384256244,0.00403240192420084,-0.11228536609070312,-0.09623766303861664,0.11871249370298463,-0.028849262765791948,0.058070264789129376,-0.04281740451365634,0.14146795403566892,-0.01609786206503634,-0.02349584797366716,0.053551893147957365,-0.0594916043551028,0.04051295588255723,0.10831029024155216,0.03389462593715161,-0.003270462407887848,0.07438299865948705,0.04977962018354719,0.06465793315268568,0.0015505617654037898,0.0010670528326360662
MMP7,,-0.006503572844289102,0.039897334371667016,,,-0.015207609479970205,,0.05157747456103889,0.007355250771050883,-0.0009452843991874472,-0.0004761141644103988,-0.04412490076814165,-0.0026148738630693653,0.011190168467411837,0.044012943408148535,0.009656592817979055,,,-0.06754415900885222,-0.03526051534843384,,0.023247877918772215,,0.02534337942545259,0.01484339637728478,
PTPN6,0.026426239645428583,0.11338291733817009,0.04158636273750309,0.026232249512937452,-0.006604562528838649,0.03248798605362426,0.031175516300369133,-0.017045527932915108,0.18392483813018853,0.04865929427071648,0.04967160006444742,-0.1444943940739772,0.048573465546857854,0.02911882110277341,0.07398112250867739,0.09517518856732002,0.09024936073049501,0.002619294706128506,0.08349379425932817,0.042308907264621415,-0.01816462838516791,0.004479939304574239,-0.03778152868357004,0.14991473391141344,0.0467721131538234,-0.035984967100454186
PTGS2,-0.0084981646697793,-0.016861975664707426,0.013032967060688573,0.03535416298806669,0.03018808480096669,-0.03614642263317716,0.01057359167470043,0.05148355088009266,-0.08114979937643069,-0.05920542373396099,-0.05497161676255398,0.010709258464242073,0.008034989938649048,0.009250476081481197,0.025634269551753172,0.011365768322785432,0.028257971867549494,0.04482563224372017,-0.07421169961507817,-0.083550027081134,-0.013779729405572108,0.037696193289988474,-0.018821257971576792,0.10880851197593769,-0.06528115516236846,0.024470610687973796
XCL1,0.017660716313501617,,-0.008056044533343713,,,-0.05524000595942127,0.050180583187261554,,,0.020370690917573986,,-0.032313947681083414,0.019710463502129575,,,,,,,,,,,,0.06996723690722613,
CD58,0.04118576329267352,-0.047543498121543924,0.09277377762306015,-0.02033365539545405,0.029143719850407968,0.0533738161281215,-0.06728283477897824,0.01802113315157697,0.1641904143619806,0.04526329190494449,0.011971907065254502,-0.03445395336575985,0.11667051720310057,0.020673136387069226,0.10178206767319764,-0.005923713943387308,-0.043934166455157034,0.0143464188919088,-0.002234867028852284,-0.00048001660549715886,0.011702671851134796,-7.676960319394802e-05,-0.09434040488896117,0.107925039351264,-0.07746754006646812,0.10519329796878772
TNFSF14,0.045175897900816615,0.0575973408303945,0.011899875524319575,0.007048870608731591,0.02146708699023222,0.005813185652316903,0.04095232058022636,,0.05737481802524626,0.04451931431688805,0.00026756187508098856,-0.07938397735092498,,,-0.018206527996984245,-0.01734704426830209,,0.030976604589983133,0.02229765808966979,0.016676838491382493,0.04863189311972715,-0.04009544230898731,-0.04951662135059272,0.0699942469443916,0.09727902172897608,0.06487472750565977
CNTN4,,0.03999023759803398,-0.028039763280592763,0.012946040532216267,-0.05770995855339497,0.024519432756400974,0.15831742213996186,0.030586338048852534,-0.07275685471188678,-0.02707168435700193,-0.01070936704850875,0.13285593567574497,,0.013462089642106233,0.03336458440680903,,,0.03129773099057778,0.05261416725744845,-0.03434458248914663,-0.027022357495259854,0.03052613633424532,-0.03378218534987115,0.0458433795084325,0.08489781203336713,0.06630067967225266
NTF4,,,,,,-0.006301081719470729,,,,,,,,,,,,,,,,,,,,
INSL3,,,0.01477843068373297,,,0.06192770929603783,,,,0.03577260037869712,,,,,,,,,0.03650957384401093,-0.032672622172393605,,0.04841658778153972,,-0.008061191655781065,,
BTLA,,,,,,-0.036799763926575996,-0.039253436344816046,,,,-0.030756370887247694,,,,,,,0.025664270764096084,,,,,,-0.014559698991098016,,
MFNG,-0.06993962512950809,0.04803954056045958,0.015073516854503019,0.055064142087801415,0.03351966980282934,0.04043228947746483,0.0776927397121276,-0.02150508720325309,0.13817437595072227,0.0022032086331278907,-0.04083452723943263,-0.03417431780796375,0.08495625169631742,-0.015836281964481818,-0.007718736010014314,-0.038807968097524605,0.14407781873933517,0.019198743537744818,0.09576091295074614,-0.0005288421895894979,0.013945376932906896,0.0332965317930501,0.01202833406469102,0.05685629288712638,0.08309067738724578,0.025591076383997144
ICAM1,-0.03990201962301418,-0.11323050726060621,0.038641498850867435,-0.04000714814190467,0.006266284642473883,0.03962009515377446,-0.009207470420657093,-0.011926792285719329,0.18126972643919018,-0.01648936329627065,0.03861136034698189,-0.08798497733170015,-0.003588295681846121,0.06595479752363052,0.045632774912279725,0.008815301897338906,0.1755677162460242,-0.0010642783875716893,-0.09444234884693385,0.017573345283211146,-0.0006353546557676715,-0.017039988165068548,0.027355424606302445,0.0986815391024389,0.0029786127787374494,-0.003267819542847029
PROS1,-0.06220147951359966,-0.030368010994637387,0.0789015597027587,0.006840808793582103,0.07039176812843864,0.023088295621647246,0.0315980175636273,-0.05760463330216705,0.20663413454453738,0.027309236649503663,0.014998823610929567,-0.04484856409734654,0.06969295123480954,-0.00849109118549513,0.04593784009370216,0.025904768144378067,-0.06945613327593002,0.055761698704715326,0.018107622255225216,0.054791150523303446,0.041486443089326856,0.05234898869227473,0.09224089933434666,0.0874135460781272,0.04449311868548447,0.08408440300292963
CLCF1,0.0340558325699541,0.028088483367420283,-0.008123902809382678,0.03309778685231265,0.061275564195525205,0.0071342697172061,-0.02840793670179994,-0.02437698492963029,0.03468089656611228,0.026456030447985026,0.007899290831928484,-0.08324913474168621,-0.0030817627990483982,0.019641734562432147,0.02881919518987376,0.04098984465318077,0.10456549948130325,0.018333202124720144,0.042968717350447036,0.02642812525590595,-0.02267092149202223,0.04340602679476668,-0.059982123497993214,0.07956094253505779,0.006291605497591972,
PSAP,-0.021523055872091062,0.14002816893942688,0.016076955444730277,0.007733713819012944,0.03221926591994441,-0.034200594465127764,0.034920906086487735,0.03435916590478875,-0.08554765907183366,0.02719480079059503,0.1107350380894621,-0.0638929567374561,0.04134938852016515,0.013614007456629438,0.006839577844987919,0.11302759711352185,-0.010840269002836153,-0.09942992281989183,-0.0989726032608255,-0.023961440842134106,-0.058182249176007006,0.07333445388906809,0.04723741186641554,0.06880011125277329,0.12199135071049437,0.04664146508994604
EFEMP1,0.05090476289751653,-0.08816254293321653,-0.012936705780669735,-0.005617080671811469,0.03866464566656504,0.026507852251226878,-0.048364506054702466,-0.01000641609431445,0.14591334683089435,-0.005837032471079411,0.01604119523612528,-0.18331372404152774,0.03830356402234739,-0.011341436831384227,0.03488065732023245,-0.0487897249977288,-0.04143120552449514,0.0870227297456856,0.08607748371170047,0.03734958463150594,0.02896919449749974,-0.004058309680722862,0.060192823163066185,-0.00604325657988875,0.05825621641908648,0.009228186515055395
C1QTNF1,0.07178458564044765,-0.0982062341008519,0.02122641029086885,0.054987577092193894,0.030197909361945406,0.005377091637837744,0.06200922569399009,0.05165393109900611,0.09074397176516188,0.051432456610446986,-0.010788823017287516,0.08372616180913378,-0.02308189146685916,0.032869394646292634,0.028959407743470438,0.0043366733065549985,-0.05634939102100673,0.0455633100273579,-0.009921548329001868,0.03019599349649827,0.07196128488090735,0.015088462154547424,0.006392799182313748,0.11611360236217791,-0.005977857317210179,0.012567832860495098
ALB,-0.059172460735888,-0.006518023236519044,0.03782305757008799,0.017287704082047512,,-0.014450725715756832,-0.0319398541012435,-0.04208060651137482,-0.02986842410945268,-0.05078696046348748,0.05364252431933477,-0.08110125432756225,0.08168397989915317,0.02392694956762114,-0.10804496939916315,0.016104991253331487,-0.05149181693030586,0.015232372008258445,-0.003970894957400006,-0.056691509958810976,0.057400266108634614,-0.03582445959943838,-0.021222237212108443,-0.005703630516911942,0.013097640557224498,-0.04089644981812404
CCL13,,,,,,,,,,,,,0.05559406348968968,,,,,,-0.09179457645541701,,,-0.027963235812265466,,,,
EFNA3,0.004079585672730989,0.03798088397371052,0.03761632263074382,-0.05832410921565275,0.017847068938780946,-0.037902376626116,0.06644004517108403,0.08453462184169508,-0.08906840021807717,0.03587153339154926,0.015663489269728027,0.16618581706110547,0.017217886723655706,0.06742420927352813,0.016484392303910245,0.05154138352219828,-0.07878882774670602,0.11147122219005899,0.059373527780789075,0.1688204970674862,-0.035908780810318106,0.02881813946638822,-0.02409047510075003,0.07569525091053403,0.10532903308787923,0.03688503959252287
DRAXIN,0.049557355269337265,0.04585887933897649,-0.011447477021182916,0.08530788399253654,0.011741784207240155,-0.03089336309701184,-0.014375622046410567,0.008355118166317087,0.11554607597851059,-0.007789824126777554,0.01804251460859762,0.0519650611836731,0.06375537035361942,0.05208955930657433,0.03457775135471935,-0.04788445094981415,0.06209296931275479,0.07992869302694036,0.02911212808302461,0.03456042275951894,0.007281987006113028,0.008789223099767755,0.0536493468219645,0.11799424164710938,0.07360254991916228,0.08819678210212173
RAET1L,,,0.017566616094653733,,,,,,,,-0.0018883223567736326,,,,,,,,,-0.02670894185982995,,0.07588221810514302,,,,
NPTX2,-0.0013744594328990267,0.11255198467084548,0.01727444802112033,0.006149840375555462,0.036897607652254076,0.05874560423242964,0.03489618508758924,0.1030250904400603,-0.17335860036477238,-0.013348560187929515,0.02715039787514511,-0.050790333123092134,0.12601585958054118,0.03150447038805682,0.015452578645986884,-0.030867617606454387,,-0.0270505749332581,-0.00826161046159951,0.029262024558966832,-0.015998779272908315,0.02867502093713805,0.13596330274513418,0.05915634938349687,0.14501757168853768,0.06662928103650786
FGF11,0.030483146225662092,0.04438035374235663,0.048012077707803226,0.0010039556778157878,0.030691658642996906,-0.07257728233231216,-0.002214981693549714,-0.04149798272905862,0.20550026868740237,0.0045296648032425255,-0.020567320567282325,-0.014325185840322087,-0.038389993981089,0.05571145132371216,-0.034892438713212896,0.11800157400639742,0.01995533992507169,0.13021068571007383,-0.009923122300777278,0.09431034727606984,-0.018099200244826016,0.022819431823946874,0.05853104622949799,0.12957304717912732,-0.019651865227646604,0.010884344690622886
CD59,0.009429743944288275,0.05157739151230162,0.07566355322364732,-0.03090455003484123,0.01784332570990394,-0.017060494192621914,0.029876234757947522,0.10855289928696626,-0.05742924280010228,0.013393747049691396,-0.024451643323142615,-0.09267204256922572,0.01970128721213438,0.018250090758713085,0.018021703731966533,-0.04210010950069349,-0.023572918678939087,-0.05318240932052394,0.011280026477165162,0.01965126472768625,0.013344968288824473,0.06076458797812026,0.0052351901555390675,-0.03499058779376538,0.17028178453070109,-0.0001437112156965384
COL9A2,-0.022181095452618465,-0.018856252333470998,0.06368039573052847,-0.04034549612659052,-0.04150447410826742,0.07007498246846772,-0.0012895870863931466,-0.0395965274894208,0.004303065233719373,0.0034806875911703745,0.022172924862322314,-0.08026032385357341,0.0652434119919218,-0.009294974695588957,-0.014292413527717557,0.031271556401581,0.10784590645790515,-0.03239760135136965,0.024130363784038822,0.1112643028227982,0.040055218831509566,-0.03322509993847876,0.050069969785716914,0.07247933984774556,0.0360092628490474,0.05327127242979907
DLL3,-0.002891417633064375,0.11024127316892052,0.06738052445749003,-0.0016718060195890022,-0.06644283829250511,0.025417828138050845,0.08563884067685618,-0.08382462621694688,0.07700615590051822,0.02167492915437053,0.012152164511385413,0.14058359557285668,-0.030582528373498702,0.05862217373953785,-0.021125269966591125,0.01913991383420105,0.047917017804557954,0.02822548279743163,0.07102218783374616,0.1081944574659589,0.02648373274594976,-0.06940324195072961,0.07648454558235827,0.035629906157947235,0.11462067709272528,-0.04474396471646517
FGF5,,,,,,,,,0.008347941562673857,,,0.04558276396155998,-0.004301499409859415,,,,,,,,,,,0.04138984619047295,0.016734902357548247,
LIN7C,0.037511942960962025,-0.012193806046683242,0.04641555913953733,0.032048471821774956,0.0607763143578726,0.00307366535751388,-0.03331415301516644,0.03454916547161634,0.03822986301664214,0.037254336913210055,0.025529664894797938,0.027114543421145443,0.08401206203442957,0.08384479880410711,-0.036581122990593226,0.010565659063318583,-0.0016287566635103342,0.05940099576967102,0.0836999279003474,0.02902636406671884,0.027831888922769065,-0.03964542864872339,-0.020843350626205015,0.05814778255874621,0.04300300392848953,-0.024272814145038048
GDF7,-0.025356697030216542,0.09889471359416248,0.014213756868100549,0.0036259678303375946,,0.023445473631727907,,-0.0028335515495683293,0.03298442896934505,0.010387520647417565,0.032136174772489055,0.035569801761597464,,,,,,0.08075808016053197,,-0.004929523023884184,0.006110596231503515,0.046554213435104144,,0.05404282622029957,0.001072221128668835,
PSPN,0.028272030505170964,-0.026716240044860385,0.01566808605513819,-0.03119038073304046,-0.004209896823164385,0.017438426883807947,0.0583479756570142,0.004996614712037998,0.05989493323984834,0.04068712679930665,-0.03436704884311902,-0.023005159586358664,-0.03688059942222431,0.024422057105243318,0.020804956833959633,-0.038842575841785236,0.09485828577017277,0.05015948714453559,-0.009532251919526714,0.024345836344604962,0.008292877774396686,-0.045212493586718146,0.0015738156777409208,0.17349221239667825,0.058729852581169154,-0.006987319662478337
ANGPT1,0.011326434824698825,0.05286455442304602,0.08727937955864067,0.06571016829658641,-0.04568355742616515,0.010275975776312079,-0.006152874401690972,-0.02928648022738971,0.07397768058060596,-0.026670308338946045,9.785184819876274e-05,-0.023891751110698137,0.04130958976982518,-0.013584648678417677,0.05878714474052861,-0.036142871950275476,0.020812082884751705,0.02087248776427808,0.05273314064027679,0.034449399845795814,0.04451097498922342,0.018560893192411925,-0.018242850618486454,0.10620177248175962,0.11316785072142654,-0.11796002913768408
PNOC,0.006826157439911774,0.1106932862670727,0.0038491187099297104,-0.017644120918903536,0.00514161797702465,0.03533513865448472,0.0813037024689402,0.09857890375577766,-0.07802307191961069,0.03176371983403147,-0.03120559808711005,0.11101912170383062,0.014442102643898324,0.004280735148845631,,,,,,0.03451272085804509,,-0.020565004274358985,-0.09099543017152575,0.012548226707225217,0.20070350627890543,0.0455815863646384
L1CAM,-0.02979617275332609,0.1728312553054129,0.015342239418681198,0.024381867016089766,0.17923372117524275,0.004640291503370186,0.009637230080637103,0.02806314269471416,-0.01128810903114738,0.032067123775159335,-0.022119077627405146,0.12046738527631426,0.029823744931625193,0.07466467580568058,-0.020640161763941102,-0.07399902642231423,0.037624230895219206,0.053586261670241775,0.005504508788137433,0.06645272239579804,0.042420652947586436,0.07775512262986632,-0.006589460215108085,0.0618195852146009,0.21858501712969328,0.1013035510076691
APOA1,-0.033131581413638804,0.01034609690524139,-0.00836402224978623,0.047316665733941526,-0.002020946816399446,-0.04000777470029496,0.014422705981728299,-0.03649475506432588,0.01839421233867208,-0.025437509217711228,-0.04123551299958787,0.04264013999530231,0.04204926439626824,0.019006415634871612,0.03940078285467661,0.05045870164248798,-0.055263006462793224,-0.029261093916612742,-0.02423774707228139,-0.028466010134360963,-0.05857930109438791,-0.04476624101304784,,0.049509802686002115,-0.033688384377694315,-0.051931181417497724
PSEN1,0.014175514538600154,0.06993531081280674,0.09741809145012814,0.03234550194124681,0.06257671198209275,0.09614395935593935,-0.0015055650755882218,-0.07689556323659305,-0.008311231785160628,0.03863240245621801,0.032585749442355,-0.08583540667348237,0.05751822217387333,0.011380308173221675,-0.02155106305559973,-0.02233300135551835,-0.0675072944926302,-0.06395707718730279,-0.046210474985078326,0.09824503276830153,-0.008140445909834077,-0.016074488259847076,-0.01045894061784747,0.024018780701392815,0.018916423561989637,0.047409813335737544
CALM2,-0.01513760705978749,0.19323415996314222,0.021336700694829805,0.017701437820252557,-0.08324451413753804,-0.0261981125493767,0.07113978187670943,0.11148270096790311,-0.21466631559560967,0.07889665206752783,-0.00512668771756625,0.24127739977647042,0.05850165435303289,-0.0029144186308820846,0.02473594680381431,-0.12148118199089794,-0.019699851799389174,-0.14285486250979038,0.09658907119931118,0.1199710303844408,-0.01934400899335235,-0.047425719916362734,0.11465895486508605,-0.023679801455904228,0.0973640263685601,0.019681158176059137
CLEC2B,-0.015804119422210116,-0.1179426432038756,-0.006153657176377289,-0.031164761788136167,-0.0744375703651802,-0.022343740457080808,0.040099785379663085,-0.02145917811077514,0.17963709142192713,-0.018536250405168715,0.04000117620150809,-0.0356149372372018,-0.02155354435020953,-0.00033675607029645335,0.0288184455657867,0.004161207359318907,0.0133892568869322,0.055528929725098264,-0.04676026361629588,-0.033135196836554484,0.0072211882541190825,0.07653527701159947,0.0010641312683686286,0.17411751734544403,0.0016686422803137526,-0.04224670704932048
NTNG1,0.05623141012199729,0.060958582056935884,0.05942735323655681,-0.03229556194175216,,0.05273392552126323,0.0020485250474521245,0.06776636322246557,0.07838273880002446,0.026669656464623222,0.033190351014899665,0.07760971019235526,0.058002004593360225,-0.0012294732669247883,0.054154287585413165,-0.022263580182968583,-0.12698453478790217,0.008765261435675038,0.06591910346835457,0.08101050394392993,-0.008931111113227797,0.01803749548031941,0.000980760331776966,0.12798117010109886,-0.019882446882735067,0.014775187716940126
LRIG1,-0.0032722744089983273,-0.03370965099994945,0.11031918998989101,-0.014630042064801988,0.050363208086525425,0.0901983700356287,-0.02025534426804605,-0.032796995298040296,0.10716580808958705,0.05694108014437834,0.028776736519171075,-0.08915856356187297,-0.07348808160091287,-0.06480943921579482,-0.027750936804037313,0.04378812248717569,0.049284729155318945,-0.022640569436244838,0.05382743077222605,0.08268851419972872,0.03430104769546768,-0.049575011699541566,-0.05043526074168047,-0.012051057128718944,0.030294430144999985,0.033306843608317024
CPAMD8,0.03443989743009126,,0.04219282317450847,,,0.024277571647964347,0.031015727206570518,0.005774182621771326,0.01714662138478655,0.010954627874346716,0.012575513981991299,0.029233354020431344,,-0.08628466029176982,0.009710748384042603,,0.0424966155381763,0.06159669552445482,,-0.03922036529831318,-0.06768324033510054,,-0.06134242909149864,0.016444317113238554,-0.0036450205747874183,0.016245292955116775
GHRL,-0.0292615001574735,,0.021425926395036488,-0.018406409657134436,,0.05314349020704743,-0.0018855630128906697,-0.012779126597903258,0.023515765394458127,-0.022566596301768778,-0.02503465742156321,-0.02217252587970802,,-0.010513656469266464,-0.026543704563793232,-0.042626019624291564,-0.02639815525202002,0.022692924494156313,,,0.03596439027799656,-0.026209464224318774,,0.027457890918077262,-0.012374970660829461,
NPY,0.04814500040137053,0.12238557517628694,0.021484646208307125,0.0726097524553528,0.0013802188657920961,0.07359780364585704,0.07956023771092899,0.09834498094792463,-0.06759509248012355,-0.04063953429576643,-0.028352573292949924,0.042715125432699994,,0.036510804557150105,-0.029933031246163932,0.0768758679859732,,0.03978727211874317,-0.019671559753358756,0.017246757343160554,0.05967956884319339,-0.07645699567998315,-0.05229411485560595,0.009107738695161327,0.06988679766903402,-0.07333610305445447
MMP2,-0.002650896365219112,0.06347425443969507,0.0852486025998751,-0.0713978596091559,0.00690416744805332,0.028425759381065757,0.03945092051176311,0.0074251032967644496,0.17419556715697318,-0.0036519472777472215,0.02018247819141381,-0.029446619579091986,-0.0706294683992451,-0.006159387034740189,0.03391712765606548,0.1131182888690745,0.055516340586415434,0.06722008113828307,-0.00808450611953185,0.11054915120028877,-0.0011527959024307292,-0.04309012495466733,0.07616110748007801,-0.006479840410421937,0.0007137047313522974,0.04359624342968196
LHB,,,,,,0.009555876434677204,,,,,,,,,,,,,,,,,,,,
PPY,,,0.029950230936807418,,,0.03772309129753874,,,,-0.02591485274221339,,,-0.03162011811725467,,,,,,-0.07397630839710832,-0.039628656836468504,,-0.00482357308340582,,0.06929700292609095,0.033313896054869604,
ALKAL2,-0.03362512293692359,0.08951367137709973,-0.04710294240400894,0.022872196243314685,,0.04743635149383556,,0.08246702666245305,0.03456494269577351,-0.005188837579321263,0.021497272611158965,-0.14985707170445867,0.024036873883224275,0.06016321002499136,-0.010612674539894243,-0.0021173044335442916,,-0.004830192889748745,-0.012148606999759037,-0.009136017079439366,0.02314046944013699,0.06258557449582484,,0.019825724038844337,0.07255785304005902,-0.0671720223812282
CSF1,0.00011945416133172227,-0.08764148843836406,0.0426456300005622,0.020873780793423873,0.029208059108879827,0.04985771345235077,-0.020240336727581593,-0.059436204974655835,0.13001736123727373,0.006507219076074673,0.02694323078747455,-0.061896496752463434,0.12594485924555146,0.03171885466593567,0.03621994944075794,0.041063721806929535,0.01853457379918511,0.05064816217998913,-0.031721992954304154,0.0018804280432860793,-0.03309909141442506,-0.0030423269641806604,-0.0059390053761426715,0.020320449178926114,0.007905690861210068,-0.07149398313811768
SEMA4C,-0.022991182096816234,-0.015973366251332638,0.03195501224862588,0.03110182784909289,0.0488762640017401,-0.02699329024641911,0.10148074790193076,-0.05823521974248345,0.09286548733425491,-0.032687808174022705,0.02524926731239186,-0.016726195382703906,0.061145509470351904,0.08914481797812356,0.09057529767723786,0.06005537166628106,0.07420990400096569,0.09246828209670262,-0.004100102793116536,0.13157226725643256,0.07580602732471775,-0.031083619789837733,0.10839097560017645,0.08264494888743425,0.09328588335206427,0.10717509498529063
BMP8A,,,,,,,,,,,,,,,,,,,,,,,,0.006003435730780252,,
ICAM2,0.022263607716647475,0.012932915426929367,0.0729607301767377,0.028344698580246026,0.03759327124332521,-0.032382564928509903,-0.008737162446108959,-0.026980423215672445,0.13538314990587766,0.045599863251937274,-0.002279239811400358,-0.01908150291781455,0.08686548554301247,0.02022443694602454,0.11143417029409228,-0.056272150935959164,0.18620955594477268,-0.004837086122592664,-0.018533299155749458,0.02825607359683588,0.04470479307687608,-0.044212158975018116,0.0890308981756003,0.015844766818173144,0.1030405022735946,0.04876828094817367
SYTL3,-0.029651111716004076,-0.028569349379666244,0.026413681332215836,0.03863384975568586,-0.002039408220753751,0.05107573342704155,0.059460894376825106,-0.011899937001343877,0.06703509756128091,0.04031016750614101,0.027196918454575697,0.02027332996920431,0.005012628403355293,0.01690428950958864,0.011115993672610113,-0.04086960956743679,0.004689048974279747,0.016130547169837833,0.09271827634422461,0.04059773212135772,0.020365447005039197,0.011607062725505893,-0.02315313056614294,0.09029462614519265,-0.014220432602128689,
IL1A,0.038860116822212104,0.0022347876455562398,0.014698399939098125,-0.0300287059593859,-0.05066877832406745,-0.032688454657793936,0.01133956604936446,0.08359054773098276,0.029239336413030836,0.010387799782176105,0.021393725426558114,-0.07851398744553684,,0.05155271118814523,-0.051165189381842016,0.058370930113669124,0.15235747199321467,0.08461407338511107,-0.006165321186750409,0.0015050182217080312,0.06838462992346192,-0.01210177721672763,-0.007412810865029257,0.010262839063729401,-0.046159112914271584,0.0364316704575419
HLA-G,,-0.027389707273359744,-0.042393417810081706,,,-0.009256591575643468,,0.024763396047780075,,,,,,,,-0.04925528910435258,-0.05313791529306954,,-0.014922996965477175,-0.02096381052313234,,0.02113046641355787,,,,
PGF,0.00779180079344436,0.011680338029360877,0.06564635222786858,-0.008241538138091632,0.08996104282843634,-0.017012406762612543,0.03449285959950924,0.01587394086833617,0.2029324848890047,0.012734842729191802,0.036258025778202745,-0.003354991244279873,0.16483357009898617,0.006482659455314843,0.028458615619935797,0.006306968103888204,0.10086274932234154,0.16347514183139883,-0.011371467276158299,0.05913324128954785,-0.05923584252189866,-0.0002811730898245249,0.1227562001968282,0.11418206375969947,0.16452765582192103,0.100858250620824
LGALS8,0.05784630892647935,-0.0629093225173292,0.07348561107463862,0.07426699796744865,-0.009720400935915674,0.0644557597843001,0.07172553725100766,-0.01932956928950029,0.1174693476255878,-0.0187601780288863,0.0032124406756438664,0.022552223710271973,-0.010157716542382133,0.09869634123830298,0.01948411184701369,0.02059864567136574,0.006623059667436445,0.11869267751774586,-0.029261232841922447,0.04014772483702966,-0.0024240905045117504,-0.006454060168326804,0.0836805353978265,0.05529929344492061,0.10451759893086658,0.13422238143112808
DKK3,0.014992153381511992,0.12752244939999255,0.03951253484787508,-0.016015757311389368,0.015103304301119402,-0.005835810391927214,0.11433765147407968,0.10619895031514806,-0.14297675418479416,0.002118758514241844,0.03299025664812808,0.2506977878799148,0.04338763834423967,-0.0015725951028043657,-0.05260151336001183,-0.04226372823815786,0.007824909481723933,-0.11331645796211702,-0.020088264588753492,0.01687222046893604,-0.019466653906931603,-0.01220284253426986,0.07715735616192311,-0.0012515771232710614,0.214257975150414,0.07934260942173157
COL16A1,0.045347308177996835,-0.004642387788738483,0.12256060205249475,-0.04218916794192961,0.042372386682209585,0.09133548098841135,0.006660495993596452,0.02571364455071603,0.025274845896801214,0.024758562741130086,0.05779913401870032,0.018740025488930327,0.1537880993149548,0.03485102829305035,-0.01370005521951404,-0.07654253359822122,0.03603702310569462,-0.003315720252780991,0.01924918646359763,-0.0194374584704414,0.02552865745064896,0.007408479482749421,0.017061757421503333,0.022438577673168987,0.04024177726373705,0.07748654816334925
TPH1,0.0559065546590249,0.03582721293251473,-0.0007270189067192857,,0.04879406474731154,-0.027177909896956034,-0.039072378907578746,-0.06927656005186758,0.0233355544382811,-0.016768880394892386,,,,-0.041121652692102995,,0.11727729144093638,-0.006277717417818081,,-0.01275894684268288,-0.019901326098316068,0.031034424550867003,0.010570871327798138,,0.06498964908803473,-0.011845986139502633,0.025782778678929894
TNC,0.06043685987453868,-0.0684791490767308,0.02142080757133113,-0.0005227512404492662,0.09199052289280678,0.07017228574277334,-0.06380415498921455,-0.12935822934900335,0.21477118617127589,-0.008460454495521687,0.0027969349222018024,-0.16680203001335467,-0.12382834992182222,-0.04364058630205233,0.03249259308797833,-0.00422670418937895,-0.015416164639007156,0.035786050729500286,0.012411786454605875,0.07154976687360234,0.025970821258011492,0.06462278753204374,0.07480362025239216,0.006444570467743602,0.005280067437913892,-0.031682266941680616
TNFSF9,-0.06769456090862201,-0.004722839555180385,0.004497220896975871,0.02141163974775134,-0.018076004834007963,-0.01715845841308952,0.11171491627504308,0.036213123646405915,-0.08480799545896973,-0.09255292852539761,-0.019838386266249057,0.029321683861608164,0.03191371689678326,0.025304849156210465,,,-0.062348103079829464,0.0036673433275834573,0.05165667565583654,-0.005633372711425643,-0.0557976057843823,-0.008038312830405774,-0.017005366393386588,0.04306893008863292,0.04363936863266651,0.0760448853136562
C4A,,,,0.030003544261232508,,-0.004845806922814614,,,,0.0018100031693873825,,-0.032984552659123166,0.028279804091195376,-0.005435941258259128,,-0.053555213097496106,,,-0.06419196315454725,,-0.05855580131500998,-0.03383082200223959,0.028068048146286342,0.0756055761687634,,
CNTN2,-0.04478270903604154,0.0384634497418928,0.016715284476836137,0.025165409636494766,0.0043458352289591036,0.06535685099328666,0.04562893671939913,-0.038019924607192744,-0.09451502206087939,-0.012237501753714238,0.03148189584435197,-0.1940050400474365,-0.001553739183757099,-0.029200544468428836,0.005373014648467276,-0.02408639649016288,0.06200744647788528,-0.11020649728507823,0.1449099473348568,0.09498927083102099,-0.03716296560810312,-0.05956753325513998,0.07471831012721174,-0.0030973693759778834,0.14171581191422847,0.015269067252470403
F7,,,-0.02926970790091356,,,,,0.020288027503328754,0.029115996092554365,,,,0.022128135689661484,,,,,,0.08561094127611564,,,0.052964595905551554,,,0.13922589216521258,
LUM,-0.018838620009598725,0.0632242299137453,0.07035905868586906,-0.0233549582731346,0.05384788517730394,0.06469928443565863,0.013787937570698846,0.022255964776760534,0.1940336380902005,0.01728020904515169,-0.022325333796221338,-0.06301177565639865,-0.017433883570480698,-0.04893717606772033,0.06094090186341926,-0.04725300530671388,0.08884905328854485,0.005306853955633921,0.007323072315327535,0.04798239786200865,-0.03171049232927021,0.029575697292292542,0.03568002415562785,0.004598776707951149,0.07292930812724989,
IZUMO1,-0.006204587327996828,,,,,,,,,,,,,,,,,,,,,,,,,
BTC,,,0.040102332630943406,-0.029603190091032416,,0.005181132902837107,-0.008759253665230999,,,,-0.022961711374650834,0.0645089912920264,,,,,-0.1144324084280574,,-0.021735330032132922,-0.02250158376287689,0.0761214491456251,0.03259083492868574,,-0.009877243581834904,0.05134888929841292,
APOC1,-0.03587008064579849,0.08323031341248673,0.04924441723337403,0.03521236557357282,-0.053419441485304066,0.031477252773347585,0.08259278491770038,-0.09846006641111366,0.22919414165129634,-0.032332574473089855,-0.028666306932535635,-0.2323418672885231,0.088861974668808,-0.1328285250101048,0.06947174504758778,0.01966757284371711,0.1503400366619218,0.04642742571211423,0.07377071093583835,0.10341548008737914,0.028454658349674644,-0.07709482282637488,0.08502791277733007,-0.007374881354361242,-0.1007920771744152,-0.06243484148341045
PKM,0.014378524981468905,-0.10249601220382631,-0.017409528206796886,0.030567766380339718,0.12164805980154057,-0.018093571935421517,0.027519097711872983,0.04603463924448087,0.138040139953342,0.036700944589865975,0.01723247672084994,0.14048689938122716,-0.049824475257829404,0.04854912552050001,-0.021080631529598375,0.08288707634190441,-0.10296807073770403,0.00891118728117967,-0.08263443792871511,-0.06064364913904686,0.01609173935306407,0.028308536305480872,0.07800221636319185,0.0975310771897145,-0.008147149433599182,-0.04367055488190962
TNF,,0.062191015540024784,0.034072992055906755,-0.003113113587252178,,-0.04553481754016474,0.01204293044796799,-0.01881935115071629,-0.024887566905589645,-0.019921047335227884,0.015322151321470537,-0.033531512177460025,0.032876767147078705,0.03620560052672989,0.050265128317483004,0.10445760934856951,0.07312598129004487,-0.006721994494320197,0.029838164554187297,0.022497581332695832,,,,0.027819994667610603,0.04532896159604831,-0.0860617385741441
GNAS,0.07109017011501934,0.14133105583642402,-0.03953982053012837,0.012823344952662212,-0.022332742005575716,0.03641745998723635,0.041647729170632634,0.11565929046342421,-0.0491484573830714,0.033087240690351016,0.03922551544659294,0.25903933539222157,-0.10701265591803841,0.049245633211868284,0.010211666691213941,0.00510849834586383,0.016629739168369812,0.0674982501401933,0.011484736565802275,0.026166239823748744,0.026356071212536747,0.03575736138640041,0.054510300623917506,0.007596349550390086,0.2029657756698864,-0.008749804714254081
BMP8B,0.037368549443159184,-0.029061441939262505,0.057567522041656743,0.009462530091741687,-0.008118816936877453,0.028807344751219398,-0.0137252236857315,-0.07367370852957629,0.024484385162713316,0.02181658465227138,-0.03320238964613633,-0.06753926171058175,0.05477263945075935,0.047886186682948265,0.13975531642096328,-0.012078132685258019,0.021633538664211412,0.014741967255475238,-0.030221347635060063,0.030023836894306922,0.045361870951732476,0.09440438496489101,-0.05065584040624662,0.08204811120159325,0.06037017008672195,0.020031249916281302
LIPH,,0.04946601203084425,0.029865373747486625,,-0.0709621849718246,-0.04503174178854286,,,,-0.05448004842363266,,,,,,0.018798892355052815,,,0.006359923320430373,-0.005299595658165721,,0.044766419032001334,,0.007343777264327105,-0.021127726136156284,
CCL28,,-0.033927294910153886,0.04190521316783323,,,,,0.009219451791990501,,-0.01931368255844435,0.02425129305950169,-0.03449510516453799,,0.04800326125448979,,0.09959644784560652,,,,,0.0017293596618127287,,,0.031802898427652625,0.0807866744210032,
PTPN11,0.00458471400491429,0.01987835356856741,0.00375572741725833,0.003174827305823964,0.002355809742286561,-0.03895993872753213,0.03513483690205077,-0.016212030924905713,-0.0001384381856690454,-0.0034551146406037905,0.03365235263812455,-0.07492860666561021,0.023466016457412715,-0.01649602103286117,-0.014052997199980695,-0.04443942970984968,-0.024272547888630407,0.016791152117031163,-0.05163864039634028,0.01946694507021304,0.010830361693052213,0.012561384848231827,-0.04403480620787137,0.04910622202788606,-0.004782668481341747,0.028699427809966243
ADAM12,-0.004584746773004863,-0.0028309947802516956,0.04473292064100531,-0.026742363560491304,0.05337623304334164,0.024128705955195864,-0.016808924948775315,0.02659605538150637,0.11735223985942665,0.012522302810202526,0.024323942673733685,-0.0396538165778463,0.08508918523822268,0.026277466590748616,0.003803062155105833,-0.06187106102715197,0.04496511000942032,0.029913100896247945,0.017622637336018713,0.029648810475774844,0.04124014989769222,0.04854034237325061,-0.027843721670481155,0.007063981160838053,0.1287486694379894,
EPO,,0.0347333981143739,0.06348648688025524,,,0.008503095063108144,-0.01942477612943955,,,0.03662675207869032,,,-0.0006917826038459019,-0.036296213029523745,,,-0.002062783233972555,0.08826096499021603,0.10735950818504797,0.029127660662761543,,-0.009753845138952527,,0.014320944438928292,,
EDN3,-0.004338313022421559,0.12733915968143433,-0.02255142429415766,-0.055549131478822074,0.02868070165138897,0.031232001065843364,0.0597284545483738,0.07282775750648239,0.05628683609614373,-0.04893942257865957,0.06569504326467972,0.045400395063482014,,0.020561555388784774,,,,-0.04633968516464359,0.015345154473615265,0.010535907236832247,-0.011906247895666121,-0.0034617489403513417,,0.013830526753233185,0.0051596267264640856,-0.003468133459247146
CCL22,,,,0.003942560471005899,,,,,,-0.03422396307660836,,,,,,,,,-0.02636040282069613,0.013896547826219859,-0.003611164473616356,0.043350858926414534,0.0010110791244993377,0.03570367745867892,,
CCL2,0.002898237938603444,-0.079399398438181,0.025908701565252403,0.011731789190708657,0.059105049844361185,-0.008021535351349085,-0.04010528444656422,-0.02338242544443781,0.08828245906910635,-0.005730645362165544,0.030305100689142564,-0.10925999957836209,0.04445697980294635,0.055841102004479684,0.05887412117482255,0.02740374873800742,0.05546468869083095,-0.0010420667977948184,-0.021726738850660565,-0.07171603753081209,0.024627382260163286,0.0016542851737684947,-0.05024583373817662,0.05082484740436244,-0.01684266799720979,-0.08371201680470937
DSCAM,-0.0194530715632583,0.00572052771857781,0.00031163916700617983,-0.016737794406622278,0.06133979904747834,0.054638959922556636,-0.0053624930994087844,-0.05451882029354512,0.04666422973163826,0.006799901157785876,0.016647492242100898,-0.013508092428726552,-0.03431009199851192,0.05737917959940583,0.01162123799336564,-0.024749339295512342,-0.04546432945336763,0.03612737301737709,0.04186490834343358,0.07711300819422698,0.03442948178104647,-0.03318747277521352,0.026029563308444397,0.07520169044325169,0.08103095795996294,0.09652839899329409
GPHA2,,,0.04220397829965364,,,,,,,,,,,,,,,,,,,,,,,
ANG,-0.03590352753505974,-0.05028902592180442,-0.02440743145450722,0.06029815456282825,0.02698429257947648,-0.02808761378551041,0.0007920414066627185,-0.012918416107175751,0.06425153837719529,-0.007749131575302983,0.005817271409971386,-0.025551217489724012,-0.023757886167940726,0.028839429823711335,0.023188359449125718,-0.0006743062156804548,0.03641596648383532,0.03314611263507657,0.020846153207016927,-0.01929937252623552,-0.05820365394211897,-0.012795155914743348,-0.013440566088782167,0.19068895112832612,0.040349928377188087,
FBLN2,-0.06183037816441688,0.016497307347623186,-0.02403696658367589,0.051953856634737214,-0.0482164112569503,-0.003597814482466334,0.0579227371163751,0.019202528202628688,0.021583214079262163,-0.027389739542275908,-0.017927914830963378,-0.027633766130304202,0.1424147053655732,0.03598620878421833,0.11178683795730171,-0.029463010806584648,,-0.011846507610455173,0.030984346939260443,0.0013632452767127045,0.04874483876330374,0.09470755532922501,0.061637182123584336,0.06560932368506464,-0.03402289401755688,-0.051994550659996204
VTN,,-0.04436475344431683,0.03261297081198693,,0.1043983198656543,-0.022385630934655096,-0.0335007611877707,0.03813556881412344,0.053997721626653714,-0.023025166958780423,-0.02808759567027868,,,0.01461086662162653,-0.017335077671530735,0.04568671852501207,0.06940179802223094,,-0.0513827591195195,0.021470036163385966,,0.02770553039854387,,-0.008920955529727043,0.06368768138008722,
VEGFA,0.0419611889337461,-0.09617595092609708,-0.08609625356425421,0.003376897510100314,0.05914069038403869,-0.02652684436707058,-0.010714591410376062,0.01570794262104581,0.10457477800938363,0.01725109690445924,-0.049334904232958894,0.13601157653015894,-0.1379032663445816,0.026318727613346936,0.03827056173329334,0.017428939893684783,-0.0942033718164859,0.17847697736676368,-0.06996346488243173,-0.07816033644297488,0.013455771437925491,0.059039451385866956,-0.06607336322513342,0.016874721841895812,-0.1256123454885163,0.00885957764160798
F10,,,,-0.0324970888280438,,,-0.009346568821806168,-0.00926106714306367,-0.0019225609518117664,0.006094061033872237,0.048216495816905965,0.031763662475376604,-0.005234526263230571,,0.05090366037529018,,-0.06840172433334608,,,0.004295971385887736,0.00685747113765566,0.005084048460116549,0.0073773951847309225,0.014398640015465747,0.0072972416689597456,
SERPINA1,0.009821024708480296,-0.006504967042117433,0.04089980305118711,0.006445409770980597,0.034555961159240464,-0.03004497276737749,-0.0417476416506305,0.01768312141656213,0.18275218687390746,0.02754667225591907,0.012757986539088698,-0.15876927844305505,0.07905310289871383,-0.006951713388618376,0.04624173418695759,0.01341667299132907,0.04937719979488336,0.039351535809558365,-0.0065304094926794945,0.008147166066794945,-0.017205146018517265,0.06640927443237633,0.05404632232641188,0.06755962382521231,-0.09286036894995571,-0.05965533221174578
VWF,-0.033856763047290434,0.09429075122637715,0.09762251999319357,0.04073296207574425,-0.01834458527293549,-0.019917178457215957,0.03918076312913368,-0.023547043902322456,0.1795816880777738,-0.007772725666028121,0.013372019819073147,-0.031037041558251235,0.07352934043747528,0.03610888326544134,0.028139441609761097,0.04995660912023215,0.09373108566249669,0.11944131562055874,-0.02969616007421623,0.013899150010697388,-0.00878559284882863,-0.027536805492959737,-0.005714912380987335,-0.05859338440046979,0.13655859002759382,0.04082908535884846
GDNF,,,0.025094248270617583,,0.04248757774725069,-0.03705667131397883,,-0.061398260870026325,,,,,0.0008344114406814579,-0.0096819098503105,,,-0.12389600438301482,0.008089993512435976,-0.016712265523165536,0.003493357552063921,,-0.017968349070548208,,,,0.06008808211840467
VASP,0.008117635337165561,-0.06263404087794758,0.06320675419290397,-0.0037811143384967345,0.05334864527789968,-0.02299729384764487,-0.03701704440382851,0.03845062043638354,0.14250247364189586,0.00337912272117803,-0.0354200712027341,-0.0914592485534797,0.04917964197274467,0.05643010331143638,0.08584242726041239,-0.09699126339104062,0.09401834236817451,-0.039881681306030474,0.10001045891312062,-0.010180623689327898,0.049012220372005866,0.07221974026128991,0.008910646287969863,0.13842331622640022,-0.020766530961676195,0.0653072444404415
ADAM15,0.0020619899949752105,0.05159145978684566,0.023277115871416856,-0.01282302209577505,0.10005372032515869,0.0027184740576160636,0.011873550921558793,-0.05835076635331266,0.027004715229471635,-0.023852082920220126,0.07991886007725998,-0.11977151985127599,0.12027538682777618,0.05240223664130892,0.03755790947985354,-0.023570239352635487,0.019601559038641973,-0.005187383493613878,-0.008230000722036338,0.09493258383486551,0.01020354776582483,0.051011815313662216,0.10198342035259578,0.09694183823107015,0.07302013052839348,0.13654343015834877
WNT2,,0.10043014222594991,0.01004209989780181,,0.07659379152778802,,-0.006050941893346338,0.0652551642709189,-0.029237682093691774,,0.05785413365623438,-0.009619515388250488,,0.03274285928519437,,-0.028503439731196487,,,0.033398399180211834,0.0002784172686624013,,-0.024514558164130944,,0.026198840578034493,0.07779758109303443,
CALCB,,-0.019344990902396508,,0.02706052794581519,-0.027961309248060312,,0.021349670082265168,0.05071282217829528,0.03232147213398159,,,-0.00872783607545421,,,,,,,0.04642917946874868,0.005536168987186708,,0.04773578194446238,,,-0.02649179485499979,
OLFM2,-0.014786504954172644,0.05411462907659927,0.07559594325697502,-0.03094829065278725,0.002783461323221763,0.052062639972982105,0.06941284832566544,0.06423320492948863,0.0059191055626694996,0.0024439630046133734,-0.03997399917581174,0.07040540296503636,0.08240585290768628,0.07091811149429983,-0.02753011391706955,-0.06689313703227513,0.061801795100840225,-0.03415215724549971,0.13580425820932082,0.10475472750395727,0.05695901795692587,-0.0760067904218219,0.036101333397044195,0.10701986726010658,0.09678029476943456,0.09748997589982221
MFAP2,0.006554082019185202,0.022146537873581906,0.05702211226300252,-0.004874085560871991,,-0.0042029469566205995,0.030490485941749194,-0.045950603091491724,0.15108470558157164,-0.02885414898335913,-0.009378134272437092,-0.0656606912030303,0.12451421294301392,0.04949410054526843,0.06353555947776499,-0.076805160462119,0.07323662107954369,0.06288677461269854,0.01584969318061652,0.037081398680704716,-0.038244460442804655,0.014846559877493273,,0.0750704933704481,0.0737300493302471,
HLA-C,0.0010289243395888614,-0.058718057493398444,-0.012130237421511088,0.0019205060369077793,0.06589043402858404,0.02949841043387655,0.05315202093592534,-0.07107880070346612,0.24803523660704,-0.014194166728828572,-0.04102913747149737,-0.23078557419206525,0.052202810440801745,-0.008004760264959374,0.006744953215427554,0.049228825150393646,0.05133729092629971,0.011097082594893982,0.009088499229903213,-0.056123077588982474,-0.04550905287214085,0.014108652554528799,0.11922999893743191,0.008426668019779801,0.03432748933835147,-0.05427153867375675
THBS1,-0.02464777649837758,-0.021965867426659107,-0.017356918027826598,0.0489128358045134,0.10246346351745256,-0.004549869163643439,-0.03089930102331093,0.025443212716107996,0.14342654479302194,-0.006353639976906927,0.03663436280418142,-0.08046373694933487,0.027323879455705122,-0.009445726542166176,0.07835697538271844,0.11985380671813159,0.008760705357267152,0.05090571039177754,0.08114901739370521,0.021504973580538704,0.04645571973111048,0.061152327887584776,-0.054226569786789094,-0.007879951421263708,0.07334215806282136,0.05816631711319469
HSPA4,-0.026741846310859862,-0.017818532159421842,0.01159733789520581,0.014040111014114206,-0.07316296077196772,0.033642412511786325,-0.05376477671932202,0.013752574881715543,0.037609266135618644,0.01932476643935036,0.06319778278754876,0.11564837358442084,0.02170479304987985,0.05249053686093425,-0.017324944526638762,-0.001183116452439372,0.04228479844560699,0.06529896989139214,-0.05368807533439003,0.1289758608907802,0.03727104405061231,-0.04857086962636825,0.030475763153383736,0.0046733660240010485,0.05200821909870728,-0.05045825555527207
LMAN1,-0.05139584123774535,-0.06575323017160557,0.02353908764364369,0.010690016037121254,0.04039809458404865,0.03918295871212151,-0.04914146040991698,-0.0688525124316484,0.18527218860873587,0.0021019718006915662,0.06511630273967553,-0.016042495358226955,0.06668837999198303,0.0680813322510443,-0.04951443079174811,0.032768570120956644,0.055504515349636574,0.046128071169476356,-0.0559794201583239,-0.040928765087943485,0.08454000872748207,0.0361157400078721,-0.06273531808965262,0.10641873886662462,-0.05572440134572614,0.04195553619402453
LYPD3,,,0.0638418097781274,-0.021524354064697975,0.03319695108940133,-0.013358888286427006,-0.03553812858960177,0.011543634829837814,0.06611959352956777,-0.03539864129721216,-0.011996057069738062,0.014581301151086195,0.11317840496496688,,0.08233924894729037,0.02005970801935694,0.04594049303717044,0.05446444417814945,-0.017515816471383547,0.03426069300867408,,-0.01082499645679392,,0.0566354810915556,-0.013503793917462793,
APOE,-0.058911412798101505,0.21546280249294197,0.045242179581935556,-0.016470771807336665,-0.010524158067048584,0.006869057664455861,-0.08686071069478647,-0.07919289505383337,0.09922008893488325,0.013646037441063474,0.01257145770256757,-0.22808576082770884,0.08603715199348135,-0.09645601278867658,-0.04775518518767517,0.08627496025835846,0.1163486105162771,0.03485837026772966,0.027010756065298215,-0.02298515643304568,0.08032715339764335,-0.04194299266551959,-0.032094332242621836,-0.034681865232186825,0.0640819263273434,0.0846047509114281
SOSTDC1,0.0027759620951513663,0.052265750283421765,0.038591980406097515,,,,0.11965798868530994,0.06259527732813598,-0.010710943871598029,0.06077620378473621,0.003355266218967079,0.0927540362042178,,0.033119328024812655,,,,,0.03520307694019532,-0.01487115726633533,,0.03625408877873874,,0.058576858127380824,0.03726278315582058,-0.02065128076990934
ANXA1,0.0029622398897716524,-0.22339690722378433,0.023800962674305242,0.027302102096310992,0.09108569778914981,0.029557700926621484,-0.04598823522855137,-0.04606737841517613,0.18370738848435172,0.004226069635629876,-0.011974732037666703,-0.14640206675111123,-0.07430634879911412,-0.0030311623965905946,0.02707757546248799,-0.1250755939750012,-0.0031433212179043804,-0.013661450515740909,-0.07043442600066904,-0.0903503203882254,-0.016434442765202593,0.025133760465029797,-0.10156643442257451,-0.08256155324639904,-0.1606386651231462,-0.018392956419576317
WNT2B,0.007519493362883203,-0.029022893524473646,-0.0692820221486217,0.010278446234801846,0.025235571797469793,-0.0391675325882094,0.027557347503051603,0.08277496655800323,0.0835581625224609,0.005395321581660479,-0.01252852183360854,0.04404685108140244,0.08017197086586193,0.03563964702723946,0.10616892912138852,0.08991988294772463,0.020466085552713297,0.010046227480194358,0.05101409242993635,0.020605857429389373,-0.000795882252897365,0.05828710036715267,-0.010275485458252118,0.04275458101802392,-0.05239211700051183,-0.02768064397933079
AMH,,-0.0277126940637342,0.004345089180657708,0.0002862180783819069,0.09111014391657218,0.004136657107827662,-0.0035679075535230103,-0.020832576630491793,0.04938251665531412,0.013189380056961787,-0.019072688641086414,,0.011500898363143802,0.07762187497551673,,,0.023060096577490117,0.08847174066041766,0.015769840517670965,0.01184922073553229,0.04934683532351381,0.05557389216456978,,0.033969540719003856,0.08872824343246968,
GDF10,,0.0331160329559324,-0.03334155237897935,0.058722342201748004,,,0.01505967790943046,0.02877351618016434,-0.006990878892242636,-0.01058782271294358,-4.774690649287413e-05,0.041797862470233184,,-0.036260391864745334,0.08065333845291753,0.014637348018360906,-0.055784274657745804,,0.024052067967995812,0.015147018683945674,0.04903582046654682,0.0037036340107756563,-0.08945954945403736,0.043001345399316174,0.008587529091554537,-0.017950071241106487
EFNB3,-0.028992400700166482,0.03121527708514129,0.016849324628918187,0.015516697306879509,0.021936783448662633,0.015432053073705472,0.07162167812736361,0.07740946068389369,0.03708752232364081,0.008571551228083849,0.017028346919559702,0.18731499088561993,-0.0015051263615481585,0.06731833698374436,0.04122478198662887,0.10224817620723861,0.10822260905233444,0.09592234531709841,0.05235501939886464,0.12603564072102785,0.05454184896528489,0.01036587905480019,0.05068680849614534,0.1573237609330716,0.07074831039406936,0.057307069290375025
LTB,0.06766027361892345,0.0552604385735259,0.029402821147721872,-0.041116188138123816,,0.015470468114611457,-0.028297499351668504,0.029465822429189926,0.021978178338294005,0.03258972373173626,-0.026563389925579304,-0.04614636533910701,0.0529032946557781,0.09074134231460951,0.009530217599057905,-0.04720994575903947,0.012653836368742108,0.0473582678847323,-0.006532449746486044,0.0336302889003034,-0.041549788076369054,-0.045692865458100494,,0.044213516630912275,-0.005674572252822465,0.03280322409713018
ANGPT2,0.03986962319796855,0.06580081455641526,0.07067651853579585,0.03986272285864295,0.010043317062765098,-0.02596793537973305,-0.007192633212845785,0.004910377289739201,0.21528107613258446,-0.019873055674036116,-0.05614859708994131,-0.031344810271619575,0.07903972151131053,0.08721027398679572,0.018421491611884756,-0.051885024621603534,0.02363678128457258,0.15700960072652617,0.00847530209244553,0.061558438105249934,-0.060718993459108576,-0.001485543564364994,0.026827564237477813,0.062493664634027585,0.19755286105289063,-0.09953908973733788
NRTN,,,,,,,,,,,,,,,,,,-0.05034744717615506,,,0.08584722031920364,0.02828816758593031,,,,-0.021719701574666492
ADAM17,0.011361899772704995,0.06372835157659532,0.02894037601251608,0.03046924244816801,0.09039267453665366,0.009202577409574328,-0.029010448583208427,-0.027666809833438628,0.14729710980939706,0.01527563626593264,0.036548214425153734,-0.04711473552090498,0.06911584733453122,-0.01636216646530201,0.001798777105440331,-0.0424498461289654,0.0494055144939817,0.09971957996300956,0.04334588039836255,0.042794203277454694,-0.008437792631395002,0.0665653655904051,-0.00296428699506155,0.09209421351133901,-0.0009955798443944336,-0.015400253507650693
LRPAP1,-0.01379804385896339,-0.03599710094964543,0.08787521367651815,-0.002417649556499789,0.0504676449535636,0.02723934548434038,0.013194003955533894,0.07490223342519574,0.07658132079977216,0.0007126502252441086,-0.040464816437556034,0.08189364446394992,-0.01042724206417241,0.05756887146114225,0.0012249582170526776,0.06513259148250107,-0.020356608769114222,-0.021618187772250507,0.030243736679223795,0.03336849786236025,0.0252360605390641,0.0393278339500539,0.008285458607039097,0.01669853133018213,0.10308447333786908,0.032757264961154636
