,MGH258,UKF243,UKF248,UKF251,UKF255,UKF259,UKF260,UKF266,UKF269,UKF275,UKF296,UKF304,UKF313,UKF334,ZH1007inf,ZH1007nec,ZH1019T1,ZH1019inf,ZH8811Abulk,ZH8811Bbulk,ZH8812bulk,ZH881T1,ZH881inf,ZH916T1,ZH916bulk,ZH916inf
IGFL3,,,,,,,,,0.02765511422073544,,,,,,,,,,,,0.018229223540782255,,,0.028571551570900768,,
BMP1,0.0754826018939956,0.039275412278381695,0.09634927638581,0.07755913285674888,-0.020571278186572103,0.04287790648855193,0.08177070032231273,0.21728913355457108,0.2598598866173058,0.12900603707956243,0.023887969213620717,0.14653165629771778,0.049676683571018274,0.28444728582779155,0.06638084380530863,-0.12273951080685243,0.02921989463275153,0.02295437463398552,0.27207837713497096,0.17326239141700242,0.09062692154645968,0.08323833947746026,0.09361743972563032,0.0594087891297775,0.18921854348456918,0.10637587806495635
NDP,0.006529938574824201,0.01225917901997273,-0.004677031018134952,0.05226409132548844,0.004390671168478358,-0.018238241500362608,-0.11169037548991984,-0.01875403629264526,0.053802415262154166,-0.04205644860450524,0.024122049809441937,0.06347634021619669,0.08122198268320606,0.01486228498045262,0.03672463938461499,-0.25991731107353083,0.06924800862152128,0.017081719598752338,0.01785609689665859,-0.0030341196164604942,0.037010435101945474,-0.013378723006315764,-0.046394615809610414,0.031155397397967258,-0.09793077663125076,0.08468052692123507
TNFSF18,0.05421419965605864,-4.7984647685197053e-05,0.02029331546081306,0.0065116851284804335,,,,0.01865034228891975,0.06724644120303798,0.022345373541689414,,,,,0.09750935147196192,,0.04489312295387938,,,,0.022045000482536863,,-0.05232615267835349,-0.05805677716564385,0.04636533431920331,
IL36G,,,,,,,,,,,,,,0.0387288673720039,,,,,,,,,,,,
RTN4,0.0007897007557905618,-0.03383416200109967,0.027473412426045476,-0.01467959527148381,-0.03935958918669065,-0.007908583460135642,-0.11595913192673767,-0.3870440923044107,-0.2590600337549047,-0.06301976198172184,-0.05230167238406685,-0.2246204558174592,0.04875060666644162,-0.3310751707488059,0.0032300998352781034,0.19191855776153108,0.04578311544599793,0.008802768256126251,-0.0016936905305163605,0.032083182139261285,-0.05825704407579577,0.07371734484053064,0.013034779893200264,-0.047170471776164444,-0.17232835066044905,0.10890720063932316
HEBP1,0.0387685185940242,-0.025595393325638614,0.0848696638104868,-0.005721716636135947,0.0040120945532564995,-0.010709195489200789,-0.02734685420144949,0.19002077074497595,0.02794027350414979,-0.014750957542509357,0.017409304686668767,0.17036189670159457,-0.001152799275453812,0.04683705611795149,-0.02010745451238924,0.024114692398178872,-0.04043384609344581,-0.008756993347066373,-0.04386821106872523,0.030445844056844047,0.06363538411325848,0.006194637804520737,0.23707001066511452,0.0007688362908686195,0.02852797062563658,0.18563852326290195
WNT7B,-0.0026605951819832266,0.006800101522210204,0.03849777850994454,0.0050115940527370685,0.03905117010000042,0.03893389578174359,-0.07165900844100563,-0.03392460299460117,-0.1549277922927369,0.06411087515754814,0.023181155392146765,,0.01747781722889837,-0.10707844699752181,0.004657104308456047,0.14863344521648525,,-0.026098986560230495,0.04791420363169589,0.08340063559216015,0.015149915412558767,0.053196576296682146,0.05283486201669895,0.013084568607172681,0.05702233625694908,0.05930370989301122
PTMA,-0.017529736948666594,0.06563077722655222,-0.031140726298023873,0.06449977108072291,-0.21753690269906678,0.04019064883750689,0.1263421342457253,0.49406716101781445,0.005072716409804172,-0.1268588286996079,0.01716356322638629,0.3746124567884048,0.07936003175495178,0.38692715339634626,-0.03702747535432149,-0.10561260833834754,0.025138222742346367,-0.018800616564767048,-0.049035055285652954,-0.044904752558771605,-0.054673695189248056,0.012002198411379335,0.140139043375839,-0.008367876357775477,0.18854488216487958,0.23550703436769918
FASLG,0.051957561444621915,,,,,,,,,,,,,,,,,,,,,,,0.05971558451472537,,
CEACAM1,0.02476921045274791,,0.03666795971192521,-0.009037310446621767,,0.03095974087731454,0.03712651891173173,,0.06541526208827045,0.0029381392667145925,,,,,,0.033061525375826954,-0.16157187677978813,0.02153511416479583,-0.01468515705037836,0.005581067040094794,-0.008312149987874006,-0.02258071240510013,,0.029369834713793685,,
PDAP1,0.06421060789936928,-0.029206611296249692,0.00984258087797078,-0.0010614890295369067,-0.09179933211377304,-0.006535499849914441,0.0827030974841001,0.1990003543802775,0.1571144650313282,-0.015289853480213325,0.014053753996725243,0.01603974125727233,0.11540380857123388,0.20722102252641275,-0.001233900191706501,-0.12443056792564261,-0.010982271689652993,0.06866508624745732,0.0495115866829997,-0.025529902402295454,-0.029210289600231133,0.004312949743618956,0.06330276683703608,-0.06765119219963506,0.09162117801738004,0.012792021245998887
QDPR,-0.01747701851330126,-0.06674921595265956,-0.08209467871935507,-0.03181882288811062,-0.061939132674916526,-0.07207432700020142,-0.1407187713376746,-0.06269054826325841,-0.110182032612918,-0.1536252362431441,-0.021722312302657143,0.40312637122709216,0.07649277657128593,-0.09772369777888372,0.07184806010635442,-0.10227755515619555,-0.04530241888837177,-0.02782410662567134,-0.09644672429248882,-0.05861626948691842,-0.10862227554389,-0.050464228378943723,0.249239998936122,-0.015052016435478032,-0.29651963955315835,0.24341627013940967
POMC,-0.020156879937690667,-0.01434860808454547,0.039090442623436465,0.009816406750812431,,-0.0025669658481081003,-0.07238953277656872,-0.019879652088669545,0.006504673574749104,0.05857137488443246,-0.010873243456128626,0.08629304536462581,0.0151685534453382,-0.07512212971097454,0.013331820266902135,0.10322724146315412,0.049619730513794945,-0.06573136601427541,-0.097585425188025,0.002924321960682066,-0.021453290489042855,-0.007123519696399096,,0.02454297494328343,0.0340929744900376,-0.06172428555944898
CCL18,,0.03320577970792202,-0.003548248423787306,,,,,,,,,0.11088837502407355,0.01429657972592779,,,0.01335021376584209,,-0.002188846362465444,0.06388155166599271,0.03574257599439254,,-0.079765954844127,,,,
CCL17,,,,,,-0.004566257660423309,,,,-0.06203903750469581,0.027171884024586524,,,0.024783003842802187,,,,,0.13733720346239803,0.03573095411181028,0.02820988846015126,,,0.05268852650860597,,
VEGFD,,0.05240328378943721,0.027246719511952674,0.035100963464330344,,-0.01863936073355954,-0.06878171617050273,,0.07636709124829848,-0.026987681410837922,0.034411395466583256,-0.04129185624393696,0.06571988214265756,0.02403185323594259,,0.05738366956160727,-0.009701869456726513,,,-0.050351849799522105,0.031213530055154672,,,,,
TNFSF13,,,0.013370346143326248,,,0.026989439671916755,,0.017598925926366464,,,,,,,,,,,-0.03213850921836415,-0.010257831328166189,0.036813701834955824,-0.03623363498348136,,0.039035044902290074,-0.006372360189865816,
WNT5A,-0.02823142344641317,0.06683624270821735,0.09282646542694066,0.011675945815921704,-0.12688618026611373,0.0036671105977773718,0.06999864732496004,0.34278665137898545,0.17906523814755088,0.006706212044690778,0.08347197932405531,0.019134358655652658,0.04656590537080324,0.144824893627376,0.021096605755978704,0.005383151754404481,-0.025591217034601918,-0.011383861658961747,0.10641987387441448,0.06458198198198764,0.08653035325241512,0.011126738195838926,0.11469073292585269,0.01697128619626135,0.2358955413914212,-0.005976956658652022
CXCL8,,0.000251740144654638,0.12984301101493317,-0.0011271376763009253,0.1618219001171201,-0.0023017462695121577,0.2382910127404948,0.033840043432374484,0.06656123840183496,0.10739418528496412,-0.03626223883402757,0.03591732535427103,-0.008542039330368699,0.12667823510013876,,0.3916510908430146,0.017655615474119046,0.16052268197940586,0.32884501514446957,0.1615201091861732,-0.01511507217541783,0.048273812801065755,0.05678565959531039,0.03640466943984235,0.235368382742329,-0.04170124977651147
GRN,-0.06438736807081329,0.10015000211005481,0.10722594295626157,0.04712603051451929,-0.0661237154231073,-0.027652698856407015,0.021305708157328254,0.24350312084755973,0.2523162906391004,-0.017298599892149966,0.027039611499620194,0.2112084177948364,0.03619928202468741,-0.01845435599551908,0.19636725869650473,0.03358254854874033,-0.09767467182478186,-0.06762904804455581,0.05006416376943316,0.06008793244080853,0.03156461437089673,-0.02621984039027078,-0.08384843124027065,0.09301894864785738,0.016058111935069383,-0.020106546955811537
MIA,0.06286598972535186,0.08708246077609798,0.04046965074995055,-0.02027021591652213,0.035426876185418406,0.06116437717395316,0.10100314548735667,0.08025102889124126,0.1157235806559332,0.13611488019561227,-0.015922806032863664,,0.04991074684322109,-0.005243005259418543,0.010773968140428924,0.21829337012987923,-0.039898475315406606,0.07023451703742974,-0.06926703965503246,-0.14360037187304195,0.01641382883921863,-0.04005550380578592,,-0.0015016130520700405,0.12152891301658826,
COL4A4,-0.018739645267550623,0.06551727569690514,0.0031518376838241143,0.00013387041556495513,0.0041718758768557835,-0.016948003147412002,0.05043732631070423,0.08078024862171133,-0.014842343326863476,0.053997459505573595,0.05171460422545424,,,0.07587086400411196,,,0.10424265338646661,0.012583987692101594,-0.05683329546881826,-0.06252741061596581,-0.07534388768854436,-0.02133463355863747,,-0.02919557649840084,0.07922442728707547,
TAC1,0.0050826682280299615,0.01765036919341485,-0.004470632688158623,-0.055168326320289,-0.052652303043105975,-0.028243445433015834,-0.13379893045296465,-0.2842722331575424,-0.2463925975126632,-0.19145564521008598,0.006269300016411988,-0.236293885607424,,-0.31353693218832235,,,,,,,,-0.09308808144983137,-0.10853624124608038,0.009925421848120551,-0.14452374853200642,0.013997250235498304
RARRES2,0.041843978315470716,-0.031853587784700724,-0.05385992012785141,0.07094056673334488,-0.09768302383944273,-0.02340736683152039,0.10897470675389705,0.20142733113508943,0.22262360273896997,-0.25922475084329977,-0.02281278254562781,0.04440082020603445,0.012545234306167193,0.19266085755618603,-0.014792436320973261,0.05334482781077638,0.17811846230046827,0.0539516542544077,0.33245641452944147,0.03528727732398394,-0.07634033291139501,-0.05386001467127591,0.04187783831137541,-0.060260028079424155,0.15189233247415276,0.12278736463862489
FGF7,0.04693011033906054,-0.02717943652880179,,0.01798825319609517,-0.04808965567856808,0.050104715476246425,-0.06525436062344218,0.021743525769570057,0.052238417623726885,0.00479840965875805,0.010847355488059545,-0.003494838886566931,0.03358940169134468,0.07338856803283682,0.04182619838924362,-0.09670962180798141,-0.09426893550941365,0.08548208464361404,-0.05908486689987766,-0.004081658547710092,-0.013536900390623538,-0.006492324528542041,0.0013500178818021693,0.016748226376252538,-0.020100451140322842,-0.050244353213928165
EFNA2,,,,,,,,,,,,,,,,,,,,-0.010995061706689945,,,,,,
HBEGF,-0.00017204171684620325,-0.0012474550777676733,0.1658997832658024,0.013095594590351827,0.15680170331998977,-0.045713309574934004,0.06072675213607552,0.2869190877105038,0.07103068072339745,0.21283964714170214,0.0304476439873922,0.16950205171947905,0.09323430055440339,0.08740760177960653,0.05709101827561175,0.21353953722119381,-0.011611455236988685,0.02966082972716497,0.03401733477415519,0.0017776662700500292,0.01806643992508637,0.03350607677265913,0.05097160629614762,0.023247910642216037,0.24959040345448774,0.13500401552063981
CSF3,,-0.030672591840352786,,,0.05829238463846593,-0.05584446444412168,0.10560591673555589,,0.02969565538772164,,,,0.004772876750623756,,,,,,0.2601629470405387,0.15184391344791642,,-0.04065011092842912,-0.09783769190945853,-0.0006546942305406734,0.21240763204461877,
PI3,,0.060738726824394566,0.07703892504038444,,0.05455125669916681,-0.01732165479306454,0.08091314771275256,,0.015354305836879752,,,,,,,0.14360827941415844,,,0.3243378927062369,0.1740632975778706,0.03049905846160653,-0.03264247104492613,,0.033597258720250545,0.19550795008159952,
PCSK1N,0.03110247953365991,-0.042016930903602624,-0.05047816016924514,-0.05186408595175554,-0.1421801921452819,-0.026575869597506314,-0.005671413887260717,-0.12863188942815962,-0.11847332505774268,0.1234972520693939,-0.10303192286280036,-0.2966766433232669,0.0781555996955012,-0.3201540638050694,0.11573895798804325,0.028588475057775314,0.06439641258781631,0.015989410545069582,0.0009293751483267872,-0.0037954531618789446,0.043303218269411636,0.028585897105085713,-0.1657925073457837,0.037649757088522764,-0.21519751707278253,-0.06164679105036664
NTS,,,,,,,0.025274703357938983,0.0079035727686549,-0.00903332097198735,0.046609861234842606,0.09615809879432342,0.0824320806199687,,,,,,,-0.06084236308019747,-0.04389492644052872,,-0.075770623258091,,0.0014299300218141844,,
SFRP1,0.0004189017224373946,0.02473357742544737,0.0470599706623521,0.018592207364626877,,-0.050602579694090946,-0.09372537124377854,0.13965284076038273,0.04659357167272598,-0.0349653472236189,0.0051526187272510566,0.18510949846058414,0.023664185598236548,0.009313932527964879,0.07242125819213278,-0.13861449024579411,0.03882445029161145,0.009800277245133444,0.01761320858195561,-0.029730536227622895,-0.05481501445787695,0.01026436312507827,0.11185087647436856,-0.005372335869613634,0.01766836624299413,0.03500804737596096
CXCL13,,,,-0.00039259778741657303,-0.09852798109366553,,-0.008487314415297924,,,,,,0.04455802124761845,,,,,,0.11756072648765471,0.12077243365773851,,-0.037936987225059525,,,0.04289281544456166,
MICA,0.0017727432341434089,0.05451591724587929,0.07576952260175483,0.006043142679338277,-0.010804835243030062,-0.00129340118208167,0.08551181818719582,-0.02397678184891983,0.13476939858995438,-0.01726465626266939,0.06228135512364233,0.039195582729437066,-0.011381517325078612,0.17127546744893496,-0.011348756709497873,-0.031565535168576936,-0.06981456841340021,0.08713419728876677,0.010822502380402266,-0.0025547784262052314,0.04352531937379298,-0.005918128585184251,-0.09203579028214344,0.10404475233746073,0.021598968080877152,-0.020046931935022078
TG,0.049346444196311144,0.013041008152574156,-0.043516282916969046,0.0015872601301666876,,0.058636789799664135,-0.03748263805127902,-0.013895633049040781,-0.02321664150329657,-0.015228719075014479,-0.012884414011370547,,-0.022122718635041796,0.020506788128120613,0.01606576741672262,-0.019204814084167646,-0.005016718673170298,-0.04649217356911037,-0.018328841861634627,-0.01287802695538806,,0.02382637696569003,,0.03871701968103589,0.037529607162730086,
ADA,-0.08073410138482798,0.05754369501159469,0.0414645353813209,-0.014997526923169122,-0.03886654318873935,0.02011942427994967,-0.08211612497873451,0.11388807553841665,0.1691455394955901,0.11770704997095514,0.03297990185020495,0.17183905386541823,0.06378923937103605,0.1219963467726775,0.03447902152187549,-0.27848564521968044,0.06471072621467376,0.030277903726340594,-0.007360304649634203,0.030406706552830596,0.08840330222657675,0.03502604465144512,0.09798631501947812,0.00186967566104491,0.036946072141871955,-0.04754931433264724
LAMC3,-0.08539586147134715,-0.01016547853043129,0.14948383673997764,0.02230138686923092,-0.11217728480022189,-0.01987737738451728,-0.09149967787318768,0.15145444288149432,0.17177118147952064,0.05607534233814225,0.05627412439364009,0.11794116776246222,0.029813265682646844,-0.01375158965822644,-0.036693589715484747,-0.23912332144954548,-0.05567159281839373,0.09916309676702437,-0.07622656459016805,0.07262421708570715,0.13602607077490794,-0.0690353833902466,-0.04628885770993961,0.09622034281505247,0.12459493013970742,-0.06374856634749436
CCL7,,,0.022824574929496456,,,-0.017631336029468352,0.11486088928989224,,,,,,,,,,,,0.0878743179843713,,,,,-0.06379088125439343,0.17138261041167013,
NGF,,0.04949193557958683,0.045953941752947314,,,0.036893458007040414,0.030065535572150203,-0.014700345619421278,,,,-7.612299416932065e-05,-0.0084064290041077,,,,0.006244100365646454,0.1214777428615096,-0.025388988968621923,-0.013324064856929229,,-0.05636576015464184,,0.030088549163343813,0.11046021909567302,
TNFSF15,,0.016032941860899878,,,,0.012730736942605052,0.00977562265761819,0.08944950624013696,,,,,0.04144939054364357,,0.04287129251317838,,0.02825252229944994,-0.00973778750229164,-0.09788590388094977,,,0.010970959850442722,,0.0687017740474284,0.16461523088238314,
HMGB1,0.028518011870134388,-0.01936027993562912,-0.09475770176454246,0.08244940418471508,-0.18546022671812593,-0.042331320898547124,-0.11925944873708694,0.2320309161383797,0.20107279168353162,-0.12330323422283813,0.03700560863854454,0.08859936424842928,0.09933132298114716,0.05856738240234528,-0.0154992372301736,-0.3097039900709371,-0.1318156420067924,-0.0002552871353318518,-0.05138295281883957,-0.014703314762106368,-0.034920340296116195,0.015277847254994061,-0.07293007069459832,-0.050678093273187265,-0.07411603442994182,0.08787535218376313
ITGB3BP,0.035334362667840624,0.037386438967117915,0.04168403193873508,-0.016917059312905068,-0.012098470213240311,-0.03526701210886519,-0.0013246090455566024,0.2758557431969149,0.21351551324430715,0.07699057841329882,-0.025028227706969365,0.03302738001985609,0.009714817622596218,0.22588805065993997,0.009367338216416417,-0.06105070595838923,0.0527466474804973,0.07884705500540352,-0.022034632314140396,-0.04839274715767796,0.011944097786584736,0.06392816357514203,-0.05319742578225567,-0.09233854053140322,0.07742917251688451,-0.0015596923981297088
AANAT,,-0.022191796239863983,-0.002291654830668122,,,-0.004055365296255399,-0.013353916572159555,,0.051042340953622964,0.016425991117181044,-0.0308999933257304,-0.011263999687837348,,0.03184707934156857,,0.033875443324976294,,0.02427092378224896,0.062421093632768744,0.01237728248685849,0.05008461202358345,,,0.004976353306994016,-0.015216621361171818,
RELN,0.04883733278456857,0.06012993122654186,0.011385115827301371,0.005705687013398462,-0.044800077876483664,-0.021635653486446842,-0.071521606999049,-0.1098942093360732,-0.15685250056008399,-0.07064792675033414,-0.014282645821558972,-0.04469205757973991,,-0.09794194925847967,,,-0.06596026634713753,,,,0.015629673442505817,-0.03235077018155572,0.06618798521405811,,-0.08533463620042929,-0.013667003019991212
IL15,-0.08014878069481884,-0.021297758575303947,-0.020975154364045415,-0.009432911342061825,,-0.013681328519613444,0.006642056483171424,-0.012770335338211192,0.01213953483222516,-0.002600105285474878,0.014966291519186216,0.044436328846814366,-0.01089526669805769,0.01686480727583141,-0.03823735699086312,-0.004017232306708892,0.018814331106763994,-0.09041671662733182,-0.03766339665716162,0.018053945323637844,0.13137171810939208,-0.03130794795716634,-0.057782227069942536,0.027136775880891792,0.1068037606014619,
UTS2,,,,,,,,,0.11944246116664632,,,,,,0.023677658818712668,0.017256628519953004,,,0.00917673377110028,,,,,,,
BSG,0.03868575090160086,0.05883999817108337,-0.015906088797243367,0.017633277857739358,0.0007730607063259351,0.02074294241483213,0.08206969488423206,0.09706273952892606,-0.08868299545787635,0.2850472319057574,0.016709663315477026,-0.22347687276306974,0.05384930598524004,0.18315161955532908,0.042201915170014086,0.34868484595713883,0.015752680116741132,0.056676336665796745,0.2353665485477103,0.11345131202651844,0.1504204573538864,0.10114216208643488,0.00840665476031768,0.1057703984339003,0.10928404051347043,0.019170968838910833
ADAMTS3,0.06760427232680823,0.021493990448326516,0.10589944173921674,-0.010936360345562111,,-0.020666209923760136,-0.03507813899279195,-0.015508562067928033,0.22267223484030968,0.036876713970342576,-0.014350884664371295,-0.0521861459310817,0.011930068477442005,-0.03789617503596722,0.061354640610387784,-0.1831388603358585,,-0.05908618487555213,-0.06812524290845753,-0.024379976640637523,0.11974537129222503,-0.05231387244039252,0.1224563949458141,0.0308491361205446,0.04178003750975784,
CD34,0.04711028105431701,-0.024589293741981103,0.0987888342010531,-0.009315208414188918,-0.03615577711074896,0.014773099125302006,-0.07730976422522244,0.06475039146877666,0.13017388732830498,-0.013563075499962171,0.0031816065291057185,-0.012647659596744113,0.12887698160274078,-0.09361975208833644,0.017075325571362064,-0.23569231823048903,0.02386378299129302,0.041951880470160956,-0.10976480332705503,-0.03526372471215962,0.06167488127743966,-0.06464462312273632,-0.017761626758772252,0.08441315697100495,-0.028264776567449294,0.09361195980796307
CCL23,,,,,,,,,0.02241162621716433,,,,,,-0.04816233593634044,,,,,,,,,,,
PLAT,0.04622119467732558,0.059788609981841524,0.10990028207078248,0.030763943160389162,-0.09436831844862616,0.002470461192656277,-0.010252398761933807,0.3555529247324099,0.2317086766196971,0.2676318874452951,-0.022248988868683168,-0.05088871368274872,0.062212775188657275,0.17365019097172466,-0.032146954843163426,-0.23119875795232886,-0.01899750277030876,0.018753649594609068,-0.12939577114219789,-0.04457171109199113,0.13873387635128206,0.178748159893875,0.06095825378254421,0.018432676688272934,0.056846168656893854,0.09630951024901069
NTF3,,,,,,,,,,,0.02904750364521029,,0.037879705857553,,,,,,-0.04493499566696864,-0.0508079086424808,,-0.01250237971185997,,,,
LTA,,,,-0.020012393969696386,,-0.0357715692409302,,,,0.013806902159182335,,,,0.03419001124838065,,,,,,,,,,-0.03156020378137733,,
CKLF,-0.04972159904725831,0.06345015807394956,-0.012357141883141841,0.10709137785264886,-0.12851285446642302,-0.013492278164850751,0.06060337005691303,0.2708560957019807,0.22430542734957423,-0.10895079126831655,0.002665258780813055,0.1681942670337328,0.12359015102433986,0.26615275562918855,0.11700502463972944,-0.16090131385536482,-0.0228459261245263,-0.056572058249358945,-0.16877826068604868,-0.0162014177483901,0.004430568132461287,0.09905231435978702,0.11118866078983007,0.016178720873563344,0.012077661426554896,0.02284326832844392
APELA,,,,,,,,,,,,,0.02959380936638752,,,,,,,,,,,,,
CD24,-0.04062338423232085,-0.02406586357430138,0.044275459133268004,0.08596092959525202,-0.14467802423872672,0.05000122039904677,-0.06614879670236878,0.15218642853249045,0.014693241568771727,-0.24098249497837262,0.08634887301681954,0.09966252768336292,0.05227477187419345,0.02409455271540577,0.09008405797097514,-0.23008844890369512,0.11934741112227222,0.08440722452666628,-0.12434918742102374,-0.12594674197814393,0.046603334517925726,-0.013448015079403183,-0.01813943996061685,0.01992149838106696,0.08165654978509855,-0.030111671776576098
HSP90AA1,0.08437928354534285,0.02799483346904748,-0.061787342770419335,0.02390978445881028,0.28422510185961136,0.0017539051246342437,-0.12243281444479175,-0.39386815619605414,-0.2717100789044376,-0.1271184116336683,-0.0010447357160046316,-0.311085887031875,-0.01110941492203993,-0.4113605742359278,0.03780338861900405,0.29859058835678637,-0.03269516730241316,-0.03274835040818328,0.3384479485720996,0.16637728369964846,-0.03959235266204676,-0.06306715366742047,-0.08179378288184809,-0.03622200012307767,0.030706391676580604,0.06336819733306859
BMP4,-0.009323835257972432,-0.02853902713053142,0.010192245787490594,-0.025955254772769058,0.015623822476285725,-0.035829438230970685,0.04506355460475515,0.2898336558370979,-0.019138692253485277,-0.08700276193994125,-0.004667526243483872,-0.04458477430954672,-0.03373749481015147,-0.05535934631783521,-0.020970038107349206,-0.16797971833824032,0.04515367889610499,-0.0134934397232169,-0.11326723110733755,-0.026615835669437204,0.004388361570116661,-0.08001224599889355,,0.09166301103921431,0.018948195659233426,
SCGB3A1,,,0.02792049752846089,,0.05324193096018443,,0.0653614654315676,0.038733513222577766,,,-0.0026908260775479844,0.11754202587216687,0.01037128768117684,-0.06295203378030384,-0.05017426546805272,-0.08955869264033002,-0.05180621641218116,,-0.08957387229474066,-0.02416089757952099,,0.01477654146025601,,-0.0099326746459498,0.004625999843709921,
IGFBP4,0.04741096811026801,0.03603997245974203,0.15183399880043302,0.07029997435450211,-0.13464290461095715,0.03186758417508883,0.10759509596621405,0.3209210163394656,0.1663504069773658,0.11647123677794353,0.019862043084739267,0.08822721380537196,0.09417986224387181,0.17804692319329615,-0.04511659388448683,-0.26921063902210685,0.0646848697346202,0.06542632429080106,0.013381045661468057,0.11487983572990419,0.14036008772769917,-0.019609111787557337,0.07716309959486918,0.05211084624591655,0.06921096144732078,-0.007312566851597584
RSPO4,,-0.011496427495498696,,0.023509421625247946,,-0.0033812680319717826,0.008460302922455658,,,-0.0018849470249537278,0.025324682956531088,,,-0.0028538642542014414,,,-0.018911078703731068,,,,,0.012519259338180884,,0.11352044205834078,0.05691811198852523,
LEFTY2,0.017161811601284445,0.0047770207796667494,0.11874945455224854,0.03753372917271007,-0.13581379483430486,-0.018755780031625747,-0.021618022259650305,0.1303169004578622,0.2051672399946591,0.06282083087465866,0.05444480323364205,0.07287883698574447,0.03524876342692168,-0.035324775051794766,-0.013535992170732102,-0.28570108467548044,,-0.02851228412864677,-0.0029603336044774107,0.03021946447087504,0.17113417337417478,-0.03551303515247579,-0.09384683365743086,0.06175847167999278,0.08492083735812717,
PF4,,,0.024689525917291868,-0.06356862071188167,,0.004413488211297816,,,,,,,,,,,,,,0.05018679976020248,,,,0.015237657110633252,0.03252384213733679,
ANGPTL2,0.044879814116593544,0.013338890282481912,0.13112692221751454,0.03979491048210958,-0.14281043569316834,-0.03204158769392017,0.06286542698390604,0.4598162212387632,0.21993349821100555,-0.019716231192817717,0.05742938469763822,0.2808628365972366,-0.05505325196013074,0.35363520034163665,0.0024097583530115012,-0.22745007221368121,0.07143316614892795,0.02940858916597592,-0.11818963256025075,-0.05398705229323615,0.0013360155539845482,0.1479814887473248,0.12062009215527673,0.04780430164278377,0.03521825841477021,0.11487733945909458
LRIG2,0.04345820412306023,-0.017823308566128546,0.07100427136409011,0.0738041842864538,-0.044022059750293364,-0.013375660336711203,0.011227956334170936,0.18757987326639375,0.15661038744005026,0.10372062374951628,0.022674398304774558,0.03128410832655065,0.04070423252106588,0.14322126464134505,-0.011766504758972918,0.18307201882969565,0.007169051343582213,0.03905233268302964,0.03513164857220771,0.032204468313504854,0.04064353951713946,0.031827780866250655,0.09764672337462292,-0.015086103900146081,0.03623044822367063,0.12716332946308154
ICOSLG,0.09595554732552662,-0.016286124854946165,0.07318436184943819,0.07209082630766588,-0.015241986860418628,-0.006409632976394277,0.08074432171013649,0.2083944592278526,0.12072534529777736,0.000696739125544119,0.029243078423478765,0.19472856630144897,0.0570100610215575,0.09326359034565236,0.05654582633656195,0.1264491979193657,0.03178254588623913,-0.024080248226328087,0.08033964772593691,-0.05342939555152098,0.10216597958964116,0.08612176812253376,0.048119711105720026,0.04641989648755687,0.05670648197739262,0.13143655564269507
WIF1,,-0.09118938464597175,-0.040151211203724745,,0.02522610761004103,,-0.047529862470947065,-0.32080694028697954,-0.25123468413263816,0.02195981732696945,0.01051585716278014,-0.15108385698860743,,-0.25930572666444873,,,,,,,,-0.03278934858222735,-0.03792641074483446,,0.043952345535747235,-0.0971649053714334
NPPC,0.07406867292007932,-0.041023301012807434,-0.048843924129396095,,0.05470683548530656,0.007187730666024656,-0.018410328543184286,-0.043588806004572773,0.019797788537247604,-0.05025611744104439,-0.03847736741771082,-0.044611952097469494,,0.28421013038719173,0.0359502110630084,0.0626270259456079,0.08737101459816314,0.07573111288417873,0.04575779992456067,0.02879955942431369,0.0768205203510509,-0.02897448910967815,0.029399878251183006,,-0.012076681279412275,0.010879352991490978
LYZ,-0.04100741782030314,0.042672309161475096,0.09777621424671629,0.13516340300990376,-0.027539471890009506,-0.03566606602517119,0.0886757767716188,0.09343383917325818,0.1728326580834214,0.0076706396731989965,0.03190897725202379,0.25928414830029484,0.06269572397444574,0.07011706231315303,0.06676343282429197,-0.003073547932653071,0.07361477334265254,0.08486971003434633,0.003125108577697291,-0.04276843892318996,-0.005890461178915304,0.022612696884417825,-0.03028404373392757,-0.0033858379943393644,0.02536744795508809,0.008875730303752704
EREG,,,,,0.05312037355328427,,0.06066023324734228,,,,,0.07859919394266057,-0.008019646344573313,,,,,,0.16338952467223192,0.08544727754303123,,-0.022377677378682324,,0.006225637958047582,0.10437854970508907,
SPTAN1,0.015528158288859102,-0.03422684743401982,-0.06916823161969579,0.010245036982451518,-0.06410275929565565,0.019462987181871512,-0.09320067750817564,-0.1899264522098748,-0.12089791208912432,-0.10079193486195656,0.05976442918824387,-0.31755219252577316,0.03092827178588767,-0.20153008268787134,0.08558864518230896,-0.16505454592097588,0.022976407256382114,-0.05062749628982394,0.0443662080116873,-0.06156878594772604,0.07184604493727617,-0.04762591549453637,-0.010665450723535495,-0.010259176218178264,-0.198374472449039,-0.15525046289356959
PTH2,,,,,,,,,,,,,,,,,,,,,,-0.00488528792459625,,,,
LIPC,-0.023538716304461586,0.012180187478843977,0.013018732871611288,0.01510327999818999,,-0.003494967202502447,-0.01861394421442002,-0.04638416127574554,0.06919056996837808,-0.0033237550520591216,,0.09794186330463506,0.016039742247997535,0.04282530743717276,0.047665664886587654,0.007156670023604403,-0.03885808003742253,0.015964216233585286,,,-0.009259436352648285,,,0.09018519732049747,-0.03956714199753326,
COL8A1,0.04684500983086475,-0.0003771361919854744,0.0912166773230115,-0.03532674439144114,-0.08264146231704603,-0.0418738884822533,0.03371531217783366,0.21860502054411698,0.07250734003222709,0.12585435109806778,0.0040329207713540646,0.21359603303732683,-0.03104104835803316,0.17773284797670544,-0.05394269303146583,-0.03855430752866737,-0.006710503497232147,0.12884037484070743,-0.0319273167953563,-0.01924300671598047,0.05976944736474734,-0.06506695712948377,-0.014703290917149652,0.06746081237227733,0.05397230988938055,
GSTM2,0.02968125730345307,0.030332673775373676,0.014452774031168335,0.007430893405775015,0.0053350001998885704,0.016293460578094304,-0.0023523571777231416,-0.03802385774582922,0.08080386951402112,0.05634660497509695,-0.005938490399811405,0.040799192414208485,0.02861302928373314,0.11664058067685697,-0.030997744061026518,0.10726582017325648,-0.04551184601196583,0.06362200803444266,-0.08903220898998482,-0.015512346442926468,0.022269111560749105,-0.015202371745633594,0.07517886564974419,0.03396451365633786,0.08117167628271725,
IL4,,,,,,,,,,,,,,,,-0.029636949713292792,,,,,,,,,,
SPX,0.021473105150963647,-0.015114562195834536,0.04618826006407345,0.025681824911239104,,0.0019431829357471895,-0.17358397388263538,-0.13560343034511121,-0.06717743475762651,-0.15723773414160916,0.049568304639599936,0.02785800452643069,,-0.2877242386993594,0.004333489610148273,,,-0.053121648074285294,-0.0042826044814259666,-0.05005832602762657,-0.0495557070132914,-0.04453887284988791,0.04126854193707609,-0.0035185600859760193,-0.15361865196277144,0.11606392277381325
MFGE8,0.05263185330492545,0.03426202445009454,0.11384432894901,0.022876505980439405,0.007113121640463106,0.04985257864579195,-0.04864753169925575,0.15582113430414926,0.0747465075817403,0.13934804002401632,0.06405327582103366,-0.06900346194349154,0.10854865213917836,0.18062206854694804,-0.0007582129065625368,-0.075903340294212,0.06029583837593721,0.14884114967048706,0.08019952324080402,0.10982251832886203,0.10600702760285641,0.07646395881854184,0.06311885176434459,0.08039356345473607,0.16773998451670039,0.09742749189004453
TGFA,0.013770603603256873,0.05466357545582372,0.016447153535636586,0.01868477159668143,0.0003683520865261976,0.06339577408016835,0.08957595258394614,0.17871317030416362,0.1944879198386945,0.23213584960939468,0.012571681711704061,0.14564877949433602,0.041576722361326916,0.13567162953391476,-0.014690358448446137,0.2583091299126796,0.0034798454040705588,0.010565403023808576,0.027875016874125417,-0.05384496486414392,-0.024163540132172732,-0.04039335951056181,0.04077497884317995,0.01990285710647998,0.13650562490017373,0.07986446927391284
SLIT2,-0.004676600576411005,-0.05716760447896663,0.07801514873108281,0.016949001309766315,-0.05492136803813414,0.06637725839080673,-0.04703772446648409,-0.05571330192387792,-0.040313628297240195,-0.04618713128837236,-0.006835344653996594,-0.12781364931799807,0.026146786995246446,-0.294194280683206,0.07447809119563016,-0.04681952494482147,-0.02829671707102808,-0.0236536769136351,-0.0029044620018020316,-0.08087503353296564,0.05798453829946188,-0.033890154421147935,0.09904526644717541,0.06061243799637331,0.10293162653457226,-0.006824630655167936
PLTP,-0.06353336438556367,0.029324781962249566,0.04921826365479896,0.016878200063481938,-0.1892730447957458,-0.01845909628254571,0.10313407292127158,0.13165674589861548,0.25515470094358916,-0.08478002399751325,0.055824110910467226,0.29319984360791157,0.04914223445229382,0.06584183423115876,0.059102756962202165,0.001471647354843174,0.06941238584876873,0.033981105726728265,-0.07418647916307931,0.16515887585115913,0.12346051113893063,-0.09062547878098018,0.0151455926952202,0.0686163437897607,0.0690945092000811,0.08277635666118918
APOD,-0.020928375628205494,0.06943214511226282,-0.04795029310525689,0.01991984724961435,-0.21120333582634382,-0.029129560300570487,-0.05198312817036747,-0.030629988907468726,0.19176472599271377,-0.1910417976121453,0.032155604345154465,0.2979539135139708,-0.04624237945003647,-0.24288588098597935,-0.12680932444570203,0.05038303522357844,-0.11558752958155809,-0.08432763409049718,-0.1739092546842762,-0.127601727580874,-0.09694124876955086,0.014038838306963128,0.0935483465090227,-0.012672863597409729,-0.10978387125292174,0.18858263884840057
B2M,0.027492030398833845,0.020885039376410425,0.13539586968629436,-0.060479662608367214,-0.24782481474917012,-0.09519458509806057,0.005614527442264599,0.3579747946067632,0.30507684812434,-0.19981295285652112,0.1142300769156741,0.3985738365320061,0.09965115896386831,0.2911695755666196,0.10384238965690502,-0.2290916399035258,0.005667564350047071,-0.027642076031789566,0.03140116057683022,0.033836696658812664,0.11665905315254003,-0.021313214464077253,0.04632976540948161,0.09735431800404297,0.01287330276031991,0.036030327138920334
OMG,0.0035558335327315355,-0.01471060151890236,-0.09976697826432288,0.02169593230144115,-0.12713336256907373,0.04791705258392944,-0.16105750804721597,-0.10240730718774493,0.03420282892067305,-0.19526993882917715,-0.040507574870856454,0.03357856882615425,0.05044267991775394,-0.23047622935001214,0.060224690356610364,-0.11516710938124668,-0.08110526267631636,-0.04477404432502331,-0.24455774356619045,-0.128426433612763,-0.10630427212028408,-0.00782963099222094,-0.0430021115560918,-0.010621242261848199,-0.19042898708558187,0.08087753661573316
CXCL3,-0.012065040782791452,-0.04038589020711193,0.04304404078925747,0.0011607776070587958,-0.022693484476160954,0.02591394922707176,0.19057433465156018,,0.0728281772972356,0.16173007459749508,0.031060425027303173,0.02792095871055878,0.11328146802247657,-0.014425205004898344,0.019132559159481338,0.05503232215021123,,,0.2284888865963777,0.09827020065220991,0.0076855846601118424,-0.017298601301081802,-0.011919577848965262,-0.012685151786894529,0.18483567970970646,
CXCL10,-0.014197702589050147,-0.003654377681088487,0.05844599131849059,0.01827758840456413,,0.0016522114894167578,-0.05442481199525659,0.03816909393699127,0.21809509516806277,-0.08034701904320793,0.04587186478730826,0.016718978834600537,-0.0028206101267729913,0.10138396890295844,0.018969274375315318,0.05701794682065291,-0.0261662387148526,0.0033156275260734862,-0.0005363713866372977,0.007131593856580798,0.06916922325813758,-0.005901896018403565,,0.01009853272235807,0.030788384872649455,
RSPO3,,,0.04599622991562005,,-0.07060482921468568,-0.0214559368868518,-0.08930658947116016,-0.07781360494820688,-0.06555047784989938,-0.017052978207547566,0.025510195917395995,-0.08120556853570023,,-0.10311448197764661,,,,,-0.056092007084536585,-0.05186396437222886,,-0.09043011595351297,0.010317517136808764,0.02182367237995899,-0.06177612852376773,0.013956991493716719
CORT,0.002162874665455115,0.070018129179518,0.016065394944058745,-0.043945442007030704,-0.09892318136087058,-0.035037581016633075,-0.11554516360972591,-0.02641993348782264,-0.12871580279118935,-0.02127847860344144,-0.06173275294115433,0.02988929728880513,,-0.06405986611910489,,,,,-0.06549659791549557,-0.02934952104919691,,-0.08142759595415959,0.05609695315095667,,,0.0781294315637768
NCAN,0.023253875335762658,0.09730840552179215,0.04392899400240118,0.019958260343526133,-0.10797525001583388,0.002103982833304985,-0.17186257940357774,0.1987843516408731,0.11298299051882274,0.17654567636372293,0.03166801514625242,-0.2521082825080478,,0.2535390942621634,-0.13540852003365186,-0.13106679439628127,-0.11042462523672505,-0.06075331908817565,-0.25147296699962973,-0.1276960133337991,0.11245669468581021,0.12893392379615923,-0.09406457591995566,-0.06817098205440461,-0.21657670747433444,0.05124594593265831
PRG4,,-0.03275534486203965,0.015822541663367582,,-0.06250586476277886,0.05147755917882939,-0.0063609833900157555,,0.045742683134445246,0.012493228125669269,,,,-0.02297229194642954,,,,,-0.043392624743229455,0.023305551075600738,,0.058723128337649706,,0.008021412488943258,0.17466826941429997,
ZG16B,,,0.015349956349738911,0.07973488945211395,,-0.012487974583406645,,,-0.034273163094811376,0.0041149069577355105,,,0.0164415732005794,,,,,-0.05558866712549883,,,,,,-0.03510307437593747,-0.016545176326696345,
TGM2,-0.021308650752216,0.048236773658742384,0.06544950435033996,0.053765860246136235,0.04024317400671607,0.025209559882967914,0.1237033175830551,0.06907796174492975,0.09362842616936703,0.0633954946576472,0.10006612209711896,-0.0012145715478225397,0.0069935251998496685,-0.1786733527635004,0.001260735781966363,0.296069792246599,-0.016295795106550222,0.06597535877078654,0.11876263931008676,0.17988301198386575,0.06930982772399573,-0.06470938056100672,-0.0006609019454217769,0.04418362401069368,0.06083149850103977,0.09333628397932307
VEGFC,0.06693680766410916,-0.06276017818637253,0.01776189428825842,-0.029558521769714255,0.019877848091351045,-0.003107641681857428,0.03419553466775056,0.05885324744846576,0.0351485462960277,-0.03332479912528158,-0.016499106190125342,-0.023437129548934416,0.002681199090661791,0.03149704959222759,0.04749753009507602,-0.12292498932288315,-0.024731487418211913,-0.07348729552083978,0.0573886187959596,0.09748246610598056,0.046645107864911904,-0.013080146340979325,,0.012700937886890857,0.11218530690096638,
WNT6,,0.03440908166193357,0.04425373794105998,0.034914037145148326,-0.07050356944320822,0.005093050069752367,-0.02019278310017126,0.061499283696985936,0.04395737594756736,0.0534226464813513,,,0.02178128837919098,-0.059857853098336106,,0.12886706657563196,,0.046801735094950905,0.01361878246294507,0.044209045293248525,,-0.06260744710777667,,0.039010954149171016,0.0027642753673160674,
NRG4,,0.01530394018223277,0.00962554490049385,,-0.01435067143175345,0.06409891966014651,-0.03394996539936155,-0.018381711347064116,0.048273445508902425,0.019638596010096227,0.0048481033076355545,-0.112743336370377,,-0.10615628945698449,,,0.004317999259383834,,,,0.02354288669715985,0.1152315315260806,,-0.021229723067859252,-0.051770087826675124,
PMCH,,,0.08033496120030707,,,0.007667706093522625,,,,-0.004379704695408911,,,,,,,,,-0.04633459392057251,-0.00216725788345137,,-0.02128615268760323,,0.01215382329214585,-0.03043257966179122,
COL9A1,0.07231240974859218,0.040965778329704716,0.05590024066968741,0.019537662566852108,0.012576561878043192,0.01521820829311491,-0.019839984136685154,0.3961213082626751,0.062273164840443054,-0.023985443233553855,0.04950445564425265,-0.11694949982016038,,-0.04401118396565362,-0.02074634195524464,-0.07365297255694701,0.028069419591076353,-0.09556469030845402,-0.15918984105693607,-0.09680900855248761,0.11132857340547105,0.018952372280929216,,0.03180895868610056,0.05960684720659379,-0.011913378333947285
GDF11,0.06838669071346601,-0.021671654580804577,-0.026428066075449782,0.0807462589170398,-0.07131241159593622,0.03542689024040731,-0.0668385244612128,0.33057004969366793,0.09394893979617994,0.14368694685336222,-0.00475031835147413,0.07043440781874162,0.05014511295078731,0.13802873255694983,0.014068291318125143,-0.03333181447476354,-0.054438617765519705,-0.0026862485143667944,-0.013384570752003116,0.001961474831860369,0.03385109351598499,0.010456263273623857,-0.03161610494645295,0.010409925981919636,0.023846364011434293,-0.011795948224207774
RAET1E,,,,,,,,,,,,,,,,,,,,,,,,-0.04682531801943832,,
IL24,,,,,,,,,,,,,0.06097531963074598,,,,,,0.02941595397024453,0.10337621576896072,,,,,0.11676551231722247,
SORBS1,0.04467719336890458,0.020487095260196465,0.07892275850040344,-0.027351078910089904,-0.16223423231000922,0.07872736996010188,0.0020029746262831263,0.0015876844826162974,-0.013837237104813377,-0.05904404200803677,0.011045795453992716,0.049459642279486044,-0.0003190859500282237,-0.041498732561480345,0.044868420681269026,-0.15480420098325437,0.11342596904710453,0.008524529789083657,0.025108163032861213,0.0001681558140664146,-0.023238118664486943,0.03142904528699916,0.09882151336969594,0.05961136789372203,-0.09824747948114994,-0.04342894785462608
DLL1,-0.027209845259763294,0.03728570254094677,0.08322464875390417,-0.002983863776522883,-0.0289630531432535,0.05547287759755963,0.026957912199047102,0.2687133520588488,0.12901891123268647,-0.044505684640207994,0.014130001457213022,0.09058373072931547,0.008648636821871085,0.20327613397384467,0.08388717323794061,-0.17357110904721007,0.1466266748533902,0.010247143854279515,-0.21059544569046132,-0.1348617081332887,0.02677995939449703,0.0727419265658528,0.1151717559518405,-0.027970419967363682,0.08805142905513895,0.13899174771740233
TLN1,0.020185471060293673,0.07610850912926222,0.15069852467907308,0.07796848047764411,-0.012985271805380009,0.018608918798718368,0.194118663960132,0.274585367562825,0.26460493792149065,0.1210297858307634,0.006113328702475623,0.31705103019433134,0.04946909093700795,0.3671884210604747,0.017556720812265218,0.15679999484840318,0.05231003981853425,0.08358532402611192,0.223673630918964,0.11477623817351522,0.011928523204997897,0.03472239244301032,0.09899986522514165,0.05420478143163748,0.16914484346864042,0.12416753108528321
COL2A1,-0.0316740961975953,-0.07090479979250197,-0.006860338378743615,,,,0.009996124474870034,0.050984481648985065,-0.004509868914815066,,,,,0.03872134155020347,,,,,0.10947496314457952,0.04935428426787877,,0.006307185339203476,,0.028495663777463324,-0.00211618792861704,
SHH,,,,,,-0.010567942051590064,0.06922707773081596,0.015182258560019616,0.014678486413178078,0.1419904111814827,-0.014879736473407382,,,-0.12129090578959695,0.036482537112455284,0.27996467863740354,,,0.12033261565567804,0.08136770017240151,0.06559948268723165,0.013926107835267577,,0.009031099743814015,0.10334009476153679,
PON2,0.039766085780975936,-0.008687534454227428,0.0052184602751873055,-0.07561018290603391,-0.2346118879261726,0.017121498126040354,-0.02081380813765846,0.03529368720427642,0.26402953018212255,0.01844595829414951,0.036639651881140475,0.13799867073987002,0.07154699183919143,0.14521771633894184,0.06617644712251411,-0.23515917784434467,-0.0510534381061844,-0.034984144686886175,-0.1376155583548255,-0.06818845346539994,0.044872862786134386,0.007534463579114806,-0.01751677213293721,0.03591555334288818,-0.09706750720030026,0.05730383634314982
ICAM5,,-0.06414811147178281,-0.020925510285010124,0.039481849307751817,-0.07614086185929453,0.0539429134340843,-0.09047148762714853,-0.08878901626547453,-0.1559060707419922,0.00021827743216994906,-0.0034826340626069306,-0.1803574766072635,-0.04789805259319076,-0.18095833809706902,,,,,0.037271811442952725,0.030202435375778693,,-0.042319149574233605,-0.13406118989547577,0.03374681254763047,-0.05522920109030038,-0.021127560263164796
HPX,0.07274575324579398,0.015672929569969518,0.03606477213513975,,-0.045170344174009135,0.01076602646840431,0.09068319884589272,0.073574588738225,0.06717843101081585,0.024832239694379653,-0.019746269634959585,,-0.05839167458232782,0.07475505495056518,-0.012558193777774847,0.038051344608514594,0.0013437896909176514,0.015182994308654097,-0.0010417452844032563,0.03640594897950733,0.02958332234305687,0.046599540731146395,,0.05988567186545196,0.07235314109723401,
SFRP2,,0.0522862415347489,-0.010118636228232723,,,0.04167656321830599,,-0.013942617281631535,0.045652168110089965,-0.0004551648091060848,-0.0593605697464739,0.12381048041178284,0.06220515796376457,0.056979504051658865,-0.001576955866401614,0.09745112495350779,,0.0841397016304145,0.05087918444379591,0.056143152570342095,0.021962341263978453,0.05336526594920816,0.03895945747411521,-0.0584882685910941,0.08432468002660563,0.0722480970151375
CFC1,,,,,,,,-0.01764755896638208,,-0.07250197897845671,,-0.06792546095276634,,,,,,,,,,,,,-0.04918293767411355,
CD70,,,0.05088564750514955,,,-0.002564359805970722,,,,0.06593737627362761,,,0.028587628850902512,,,,0.015676943142779804,,0.15686988722424228,0.07540167047742777,,-0.031246423038679572,,-0.007804602230198921,0.15031952932286302,
HP,-0.018945545893717577,0.09613464773260415,0.059285178834539334,,-0.10447668857435412,-0.0004914617583611957,0.04537892472912031,,0.13082212640780191,0.05877317172183024,0.03460891905950423,0.13478211155340472,,0.056077513331249974,0.05865866869861728,-0.08096527722050827,-0.03652427822320745,0.045111218186404095,0.01793227740509833,-0.016373106826549494,-0.03586480642892821,-0.08896447175935915,,-0.02453764666272581,0.05951425984873718,
CXCL2,-0.0009427095118381574,-0.0373862085251977,0.013589153731963488,0.024283356903380134,0.012483489987790272,0.11261301514643461,0.11389714192653488,0.044117962258090254,0.0723859294545344,0.06492226114638291,-0.0016804209992310136,0.10852177921907855,0.045882814949183934,-0.01708099575140327,-0.049485809790131376,0.043502310904322494,0.09285799374933654,,0.24970590492841602,0.11251178897038036,0.021920898565685475,-0.0779423569318294,0.13037445346718188,0.08722319178316822,0.17358259235742746,0.0015924868128004927
NPPB,,,0.06966070376899106,,0.15058851117095776,0.006148354830637632,,,,0.03615406014197332,,,,-0.013594101470850939,,,,,0.033244899376760874,-0.04284643111535761,,-0.06244944598777599,,0.021127478235237137,,
CCK,0.01721300790512042,-0.0714841691884203,-0.07053906783377095,-0.08735524839440233,-0.05746074159443643,0.055754481661110175,-0.27399723845028884,-0.4242235262826092,-0.3274107520181873,-0.2617968030437709,-0.05879775174117647,-0.34962742741040953,,-0.4310778295504988,0.11090782666674595,,,0.046725017717647775,-0.13634189622427578,-0.15891863530890446,-0.052812535023450534,-0.07659968660530315,-0.15513903585145622,-0.02550408836905628,-0.3095320556871719,-0.15717871118926738
SEMA6A,0.08499934523718784,0.01715340941844617,-0.0013823971335823165,0.08044719630647505,-0.10271871988692667,0.02969517216230399,-0.11187640608720176,0.2719657933133674,0.22427523564780288,0.0909594221784126,0.02193847870824668,0.23019749683296906,0.004925669906584076,0.24207474099319365,0.048955971517700994,-0.1486178110237045,-0.0678453388618893,-0.012495416596243572,-0.05016445629959729,-0.023769364658597584,-0.038898997343154815,0.055194555558813044,0.06817969542282448,-0.056655413336924046,0.13574342630541633,0.17686126482324982
IRAK4,0.033117859276772924,0.10746669057999644,0.04398151064103827,0.03708508506259022,-0.04273208963932667,0.026816733078657222,0.04202845379716324,0.2321875324069562,0.17042853087702028,0.022527273825289882,-0.00628213887060859,0.07906325846915817,0.010179626915154678,0.0954087722577093,0.061953904132886435,0.05408472761059249,-0.1085953671522998,0.007792459649787596,-0.09528745719111635,-0.004452003366279183,-0.01218720372489747,0.038717422728777436,-0.0043341986951357095,0.041918142732868514,0.05175587143230638,0.04748725426416683
GSTP1,0.05592694038290008,-0.0031131767730393075,-0.03900898021072313,0.07203669318558276,-0.20020563776896208,-0.07153780921598864,0.03334097617014618,0.3380107879396288,0.26623987393274967,-0.11069856512683104,0.05112992143408882,0.29428514699342057,0.09398647599015945,0.23004181972263224,0.09554333661321715,-0.06704280926139991,-0.09549419504615787,0.00793166321417725,-0.05323054071678913,-0.13745644113506716,0.0218084215779637,0.04229703513814384,0.13900511008891206,-0.043768401727966894,0.03860584005213096,0.0389197024123055
VCAM1,-0.07951432177050821,-0.06464098214644513,0.09159906737066324,-0.008206303128909248,-0.06208701823270603,-0.011837119673406728,0.16352940841686728,0.14471678178604686,0.21896618903074475,-0.20754825883124414,0.04684984655229651,0.045662040406400824,-0.05734743764662325,0.11793773575214712,-0.02676420455397866,0.10183622021487819,-0.05277824500675497,-0.027302950715290455,0.09777123130336102,0.08197194697131904,0.040209320715619,0.01407951455168492,-0.06394568168199649,-0.015312494098636605,0.08867030542214323,-0.0017017809582920533
NXPH3,-0.013291067581772684,0.03762927123041437,0.05024452350739768,-0.0011773628974619684,-0.004105582710208618,-0.016241259973726926,-0.04801878391948538,0.28385717704017494,0.06741988449395281,-0.0723596508175212,0.024880898738822276,-0.06210654407287821,0.07651212543098755,0.0027620517753683383,0.009670872713744519,0.020684280344775725,0.09401979395749879,-0.04376666540490413,-0.07888931615122907,-0.07959748238419821,0.007149572466716361,-0.025854901533793793,0.1252413215828018,0.05250657010905294,-0.02543651135631995,0.006935483255190568
MTMR4,0.0717948701301886,0.02249284716875203,-0.0007372742005385314,-0.034936428853400876,-0.004298962763527463,0.04372104847780219,0.05399663336868315,0.04970021225592515,0.007724558203423672,0.0667395948728053,-0.005659657899597932,-0.0007465610343330263,-0.014199244734284744,-0.03643132627486822,0.05804567915772115,0.23098223229694914,-0.0045782700303224596,0.030396134946586092,0.014969600063783301,-0.005669049130783521,0.09652304346609733,0.050195868575073986,0.08880132848356448,-0.022875119848216337,0.057572685041832355,0.03948366107090103
LAMC2,,0.0024923456472835813,0.03579374313573432,,,-0.03151843894915262,,0.00775425508211679,,0.04688245147719144,,,0.011118230323944454,,,,0.02608850248919391,,-0.0016036382482549297,-0.04687573948363977,0.0927959696609778,-0.005600322466950331,,0.07303176325585058,-0.06082403317500044,
IL10,0.01919379147174208,0.011543918690527327,0.009795948727570749,-0.04466132511564035,-0.05895036862341425,0.02400508993911581,-0.005126408368282677,,0.02430273458678072,0.029889982719848447,,0.13610832082148286,0.03253899580485798,0.04802520548931195,0.019637187925178975,-0.050603147429961456,0.008396011574316789,0.03968360794004723,0.02061675524039923,-0.077261725577627,0.04322864227267628,0.04990041544657225,,0.040500099916539745,0.046907857785269715,
SEMA4D,0.003708307329674687,-0.05583003525635941,0.03472380958967651,0.02609058881173999,-0.08178568859336238,0.040716508606653413,-0.03941732019505225,0.05021634071730194,-0.03592686990074493,-0.0713877965890088,-0.006398640913904641,0.20963951181341864,-0.03734608597693756,-0.01084345375007257,-0.07264718831373662,-0.0014068568358043953,0.011844040368726157,0.05621254517646367,-0.10171718038106545,-0.10551870400103941,-0.10622259866643079,0.03190449489395662,0.07063260551888556,0.043744093039823934,-0.05911578276758514,0.23313247389382008
TRH,0.028509215496954676,0.05451054696182295,0.05518268896521242,,-0.0010766462648409186,-0.0221992322505697,-0.05590208795897509,0.16573083530818175,0.06548755077050074,-0.0327119059364573,,-0.008004318819033565,,0.07402276689206982,0.004126037962339004,-0.02975289550147429,,,-0.13031921879063663,-0.02665922540901107,0.0532620193903281,-0.0329835880716526,0.016742018472379373,-0.00925166394178458,0.06472289514733857,
SEMA6D,-0.01871492802162158,0.003953146473471656,0.03320022051031214,0.00556434803990189,-0.08431606879716244,-0.02500414321046294,-0.11653222110429434,0.35188853286711336,0.17208409568818844,0.07738144292845357,0.019629420169765932,-0.07158394934222541,0.04507670933544778,0.20307120731336775,0.12388943139846724,-0.08419623915479493,-0.06608715419273078,-0.04254223121811412,0.05365322639559144,-0.0254175446002157,0.04070713823721824,0.03370489893379018,0.11642975816898024,-0.0034296840740217936,0.13799205082666158,0.09160667465056503
CEL,,,,,0.053436350991978805,,-0.033806385868105734,,,,,,,,,0.09430129205971757,0.004450040191222061,-0.026596783373057365,0.05391573622995079,-0.02765171383775417,-0.0007814168625505938,0.010670352976500198,,0.03219422384659926,0.059383709437580506,
PDCD1LG2,0.04157031168199285,-0.028495201608278592,-0.009514039112048202,0.07255314221225254,0.00035485301258337285,-0.08467893352392562,0.03359356938565771,0.014355258859053147,0.047952888173063216,-0.04881378135440491,-0.016128934291374422,0.03349461667300509,0.016115116414961442,0.03200014016062489,0.004691421528020742,0.04914304496090511,-0.020880804953631146,0.06080173479816824,-0.020540244828961985,0.06649582766096178,0.05409846951369797,-0.021185067195297946,,0.01733362327811014,0.08747152044333738,
SPINT1,0.04913128325699405,0.04632180996298383,0.028653275171647345,-0.003935648693561135,-0.040485474392125964,0.05376558171595305,-0.027852243053100707,0.11459886445733981,0.09384072758270519,-0.006253814478307996,0.008392961670341993,0.012635110351145043,0.05397693116377023,0.013008674883903632,0.06306135800869736,-0.06634089130671839,0.07374766897070235,0.05140269014729086,-0.021065651885676707,-0.02733006185416483,0.06628510882715,-0.06886877044460911,,0.04709407947231115,0.037856040959769695,
CTHRC1,0.10196798694833101,0.01341555560390425,0.1143936222059993,-0.04062692195109211,-0.02880040770388759,0.05043521953020536,-0.05144964519578466,0.45613561138347725,0.11105938585876714,0.08285930537018107,0.008803104896564664,0.016436032516172257,-0.07851396472360578,0.12606816926950548,0.0219163364665924,-0.18978657222649878,0.054040083127920746,0.029320168285674353,-0.06809463537679272,0.10768969697014455,0.054196500635250985,-0.06299967901219411,,0.037954259241758985,0.07500380103532378,0.04990309908262675
PODXL,-0.014651627560348402,0.027730870652558026,0.09764753023851797,0.04477721285763779,-0.14130338360102582,-0.008058593937780752,0.12192806744313409,0.2708896831311385,0.23854959723838284,0.11713032093219514,0.005125046163174096,-0.028369767946761732,0.06114577983095853,0.03224003631072825,0.03618404423314438,-0.2121943163779133,-0.04783073506212596,0.06567906261665897,0.033227175365593824,0.024639182877307306,0.12478693875519146,0.058054681008915206,0.05385680291329727,0.0779567176108432,0.12455485750660082,-0.07985788299832333
JAM3,0.011524683250177319,0.03922532931366653,0.05420068861526716,0.04318237683783395,0.03146555199833842,-0.029162524359046864,0.022557121301664446,0.20505902831724773,0.3245635882308196,0.13341639024893578,0.05204612466499822,0.3582450692892012,0.03295160334381746,0.20760063753992417,-0.03725357710334197,0.035106342127522186,0.1318215998678023,-0.028515289394869837,0.1713393329191118,0.11393534183327901,0.03927553677589794,0.1412709299531039,0.016058503744809643,0.055174538727872265,0.17342524560443195,0.10691084586261303
TGFB2,-0.01640519866321745,-0.04819566145012279,0.11476065264909514,-0.0467978067603078,-0.11612139926005609,0.009535585240523796,-0.09756117314664323,-0.01368602915990139,0.1936384024991113,0.04513426852983589,0.013222632567831447,0.029224998691124063,0.03259156537913999,0.10170942622855618,0.06718837681661412,-0.18447616788152918,0.02676596498438719,0.08788641650434018,-0.08306485201339373,0.05427795713606219,0.013700412584523057,-0.03676792971787297,-0.023611535791114434,0.03162326599591795,-0.03620226411991549,0.03443868534628408
COL18A1,0.054429775395067215,0.10609426552358178,0.12714772384820877,0.07189886140238172,-0.16829689917084284,0.04475776531721358,-0.05077491533758049,0.40834411739100906,0.2367596103860272,0.26626488124694153,-0.009762708050882939,0.17321041185583713,0.13605530824841638,0.00232968521855785,-0.06405149553602979,-0.27395087151537156,0.007831307110950715,0.028164301488128433,0.16006923026334777,0.20290680295541935,0.07129758774460596,-0.05830681211797852,0.08846783136897718,0.08034730951109909,0.08865209688625926,-0.06940406376939048
NODAL,0.02378516681141984,,0.03924692393527357,0.042354536012446015,,-0.014371676694498034,0.005587217190598638,0.16496518098569912,0.0669946162096769,,,,,-0.010502310784698874,0.04839005418993586,-0.19833985185266875,0.025087130125892025,0.016321683606708822,-0.1386016329578673,-0.012680663206913866,0.09449143899409496,0.01125238181058227,,0.05547162501487085,-0.03952351230009037,
INHBB,0.020889440778151202,-0.011953298588170925,-0.05684220109100531,0.03554231750709115,-0.13623478967330785,-0.01924537387465803,-0.1025908424272578,0.006116441378376684,0.13800105771468935,0.03178671414396257,-0.03749580581349597,0.09130461537073285,0.0438470324915602,0.19376139902263215,-0.01127149162098983,0.17465540775923527,0.06827216516100916,0.007534446991372727,0.14690063489533364,0.09251354674370105,0.09589173772020289,-0.04227530584026358,-0.006397338578454267,-0.05315075660138153,0.004841637853526469,0.07090487381324086
LCN1,,,0.04265272517832143,,,,,,-0.06348624588225268,,,,,,-0.010439275866777339,,,,-0.01801328996544907,-0.025306303599648187,,,,-0.03598582398196005,-0.010371071718207966,
ARF4,0.05288170310650397,-0.02121992843535383,0.11466627736469102,0.061677176294653614,0.19611228587080456,-0.0271407040286755,0.028156654027816055,0.2320271843590427,0.09181221767948901,0.008016467968700182,-0.01895317934910756,0.07097585732063334,0.12881743613475183,0.1895125325682742,0.03906498428535127,-0.15621747176569603,0.15009660741641592,0.14976077583038497,-0.167843488637102,-0.08331337335015465,0.055558992191078495,0.08869108920308,-0.03302179994368202,-0.0438458703731994,0.12610271913048876,0.08085116175814967
CXCL14,0.009232835092266353,-0.1021393372580358,-0.0018544746357845804,-0.03823511004809657,-0.010685167334932782,-0.04720177615282156,-0.15352827210549894,-0.2702455751261135,-0.09203047791190226,0.1568028646583837,-0.014373089306126005,-0.0412926804749417,-0.04628532397272986,-0.1882171834602676,0.015044739691281207,-0.2215922024348961,0.13499933666749908,0.11935222848003069,0.1178376822067171,0.15648357887670114,0.10919838812847643,-0.1255771585502127,-0.03123041959939477,-0.015037214629741566,-0.10502395103356305,-0.01262483504330161
LIF,0.013661621012738816,0.004593477067681286,0.16110521744528924,-0.007101307957084026,0.11813693178690274,0.038199109676266836,0.14884474026015895,0.063322041001414,0.09565285985068267,0.1902336652795117,0.0065443603970684544,0.06013920315756916,-0.011445564556290536,0.014114585851918835,0.07143366160938916,0.2598469757528219,-0.051831468661065916,0.03764668739022352,0.2648689891829155,0.23764713566585322,0.05864247183685152,0.17036088638082872,0.1200399968073374,-0.025228076281877305,0.3352919419280877,
IL17B,,-0.0058505842080935665,,,0.006972566602702318,,,,0.0786197159113428,,,,0.01673816942590805,,0.03309302124737031,-0.06390492492710406,0.004650397765860569,,-0.014116905369133226,0.08341037500042256,,-0.030935537034579078,,0.007724287045808243,0.048799860684086704,
MMP1,,,0.04946812957971525,,0.13601691146528108,,0.04169585202570392,,,,,,-0.06675235075212663,,0.0019937047137503078,-0.14455532491424622,,,0.11774419594856285,0.02153046595663996,,-0.016478480494315145,,-0.006924031403575284,0.19900918874216636,
MATN1,,-0.05888159147116393,0.027571406319860197,,0.05324595931765216,,,0.05469663312397056,-0.016125221373178417,-0.05135309021464256,,,-0.004549714330963416,0.039542331075093,,,0.054190984571086724,,0.03948269423380152,-0.07966589440786903,0.00834743751285708,0.046973434132884226,,-0.003898931761283676,0.003462400620480216,
ADAM28,0.04312621754054275,0.04247687575986047,0.0287930928068298,0.06728376476132371,0.0325321584162825,0.07371460973860765,0.05894686515654845,0.0766443508350908,0.07478404785861606,-0.01279796635784266,0.038215142718089505,0.15234316299852574,0.05339970971029726,0.09956406783030716,0.09315680842571715,-0.0023695769630944345,0.03427966214541818,0.03178551052033211,-0.07937224440874034,-0.055329293960408546,0.045248995525373675,-0.050957637237206324,0.032909252265347806,0.0837902297871512,0.04826455574541199,0.044701848944408144
TCN2,0.031479301675567055,0.01037056598345743,0.12381522858915575,-0.016375315060871934,-0.06789785603040208,0.013317902969693724,-0.1203703385662748,0.15227697097687617,0.13070169495511252,0.001986384033057657,-0.0006990839215438605,0.16653451207727887,0.08450928399000796,-0.06860542897215773,0.04750917800524929,-0.18923465266354453,0.04016892715123915,-0.0174743963989748,-0.09133562285403003,0.057688777955001685,0.11611624256084462,-0.11975197243444051,0.11523926311869064,-0.012892942166643499,-0.02155134390105911,-0.04887588293212022
THPO,,,0.002040206260705514,,,-0.012648751636128965,,0.01319167036069846,0.01497991613128514,-0.016127962225035316,0.005170209692409007,-0.02233566434601074,,0.009469293534634644,,-4.616094757348184e-05,0.020640413499956135,-0.008570026054576093,,,,0.028433327020608617,,0.0657777866591575,-0.007605850085575556,
CUBN,0.03801866970005941,0.030591668444757112,0.10040341454531705,0.09443802596688228,-0.025821964278980668,0.03858447400859841,0.006039654886482824,0.09596404423296861,0.07032255082122843,-0.0026287502810867828,0.002381878262857112,0.029733294827905512,0.0006623330339156322,0.004152487204072637,0.035160112919392465,-0.13290260391411218,-0.01811165244561142,0.03944656183926343,-0.0561640312556722,-0.016215015318800534,0.09247994014882717,-0.019820858416610715,-0.005228835392173743,-0.014596112376633478,0.09582074603311887,
TIMP3,0.07685853023832843,0.14590370732611316,0.03916564323263949,-0.021888283241456863,-0.019932493474087376,0.01725152027749959,-0.1343310359097219,0.1278281983116074,0.15247876067577698,-0.011936482847077353,0.012128369210395598,-0.07062636498710662,0.014517115757601198,-0.04750229052093818,0.015043251680691374,-0.2517146793314588,0.1255931590827375,0.1190286266897355,0.03394067840667193,0.1487682397013181,0.10039950043607393,-0.16370775598885767,0.0047573244231565,0.021117670503388853,0.14468288666420237,0.03457853471669708
PIGF,0.0063513414233346294,0.055426012255719775,-0.029130545297062427,0.06222593893143105,-0.16670632825767498,0.006369670442960252,-0.07907349358856465,0.24789960877182646,0.15857969959148013,-0.019466357157559233,0.011034448735768787,0.09353800983583209,-0.008565923728359341,0.09138609330581762,1.4003042930330251e-05,-0.15036601104205374,-0.0027143800289661678,0.008888962070474338,-0.08964028779629847,-0.08781341282784745,-0.01708304940821698,0.037365560582324035,-0.013539044612680521,-0.038282043524766614,0.019024194441341364,0.047741791014208015
CRH,,,0.03684965852325672,-0.02750060775333357,,0.008482371788584995,-0.0703745886796438,0.026348879805020046,-0.12754938111337225,-0.07365560603589531,-0.002390435160549958,-0.10176473844947384,,-0.05533724960493293,,,,,-0.012619590518618334,0.036555334201141,-0.016019079947319322,-0.12608831870023335,0.021022850984983143,-0.021871529041820558,0.06764159553615545,-0.003598159472125448
BDNF,,-0.042547617072934946,0.0215581275563916,-0.0038650663732688194,-0.016578946336500148,0.001798952627802221,0.030918262760900827,-0.1415266284906108,-0.25831503423296576,0.16261886746177567,-0.03835941178002682,-0.08339420396381424,-0.030815610108646068,-0.05520687009425184,-0.001979982411256172,0.09774384416713537,,,0.0217975348037149,0.061383303745926515,0.10294135353154273,0.009311934438603307,-0.12934166120480858,0.09444500960176874,0.1609563692433901,-0.10045570772681284
CCL5,0.003390950131277389,0.03764332883314986,0.02028347213744097,0.03702669675063728,,-0.019439488187863112,0.13055991705537193,0.01803430848652054,0.13026848053676093,-0.04160581218597581,0.004639003808658173,0.12465111507362377,0.07926105807601135,-0.02017124059126352,-0.006559245136409501,0.004170917337587557,-0.047707703326885814,-0.034769427360996696,0.12621031784411915,0.11254567690196458,0.006931110120407626,7.679901851401551e-05,0.05005637210878104,0.026619529227032267,0.04164642837631414,
GAD1,-9.61304815650923e-06,-0.08397992213328527,0.052338422828697176,-0.04830122019752883,0.07635817715842498,0.06847553997758409,-0.1705311252410794,-0.32123475805040136,-0.25426301242528854,-0.19247512200049166,-0.06622800970954384,-0.2566805632297731,-0.06028328552932738,-0.406872166310036,-0.0908630214176791,-0.07889216726743184,0.023124942371202786,-0.05239001292341105,0.011858861920092044,-0.033274288481584785,-0.007058942977577587,0.03730183328576113,0.019298572714198187,0.03839774659134444,-0.16233876390626367,-0.06822864560072345
COL14A1,0.014310636127973432,-0.04079706596138993,0.06584354884595442,-0.03527433422412232,-0.04441954196163335,-0.031245386229403337,-0.014043734858727274,0.1001130001149038,0.07783233620498194,0.013152364431049229,0.062482396858580605,0.1224193969573974,0.052106550658549966,0.10589141522781984,0.04681550383347467,-0.03885290134363171,-0.1343714542770966,-0.026247096354525795,0.1510770816568572,0.047747795469156695,-0.014755008037802764,-0.12671933847607111,,0.09628061559426754,0.14346469205507523,
HLA-A,-0.012981749928102288,0.0977435946419753,0.07402353826804246,-0.018413730871459952,0.07312090884897578,-0.04347977302676616,0.2770809444654045,0.28707406443327466,0.25669179928068925,0.10793351015275339,0.08662050506389733,0.3598335862090596,0.046660531620107734,0.32800794198551886,0.07394277781600893,-0.009579139649266526,0.1667958208543888,0.021970870997072952,0.3953642792211193,0.29632358489816335,0.11657043597474,0.07552611421458802,-0.006248306259813693,0.04468950865159025,0.2510299425579098,-0.018934843598989646
CD5L,0.0054490840884541545,,-0.0019961484074569676,0.005586236538140927,,,,,,,,0.025271443217663198,,,,,,0.004579983314518826,,,,,,,,
FGF18,,,0.04345880896268001,,0.03566132934741221,0.02345117455836145,-0.0054280516241627386,-0.041337156432037656,,0.03155264974705788,,,-0.013600339728285811,,,,,,0.07284095233926885,-0.021701824677564145,,0.00261257266916603,,-0.024783966934443406,0.0551155271645208,
ADM,0.09135585484269687,0.03959088241425891,0.040248837504189124,-0.06945289902142116,0.3770312939614632,0.0237198406559435,0.2516849771762556,0.14111217681524177,0.11193689992979432,0.28620287692207863,0.02856237813198493,0.10112432725986606,-0.08958905458873775,0.3578172539942957,0.0028471599006474487,0.47596840106011334,0.1575779551452237,0.13306725297809263,0.35411956126172817,0.10649174672126749,0.09807683029403827,0.09522274514522996,0.10217843516176833,0.05307538539510565,0.2784693693745554,0.07681783981069827
CCL15,,,0.045625438038132654,,,,,,,,0.03681872491032594,,,,0.026712694511478792,,,,,,,,,-0.0018784262912538477,,
GNAI2,-0.028659637602482576,0.061070133220634704,0.11599289885832526,-0.06225104691719193,0.09764586087110955,0.07708097444782848,0.08786378342621778,0.31808212090030413,0.2795138123724819,0.08732470504337303,0.018933467016390385,0.2283163457089305,0.0012688313033083006,0.20665484173511056,-0.017924907398932575,0.10738933898330721,-0.16905278412952474,-0.039263823576752385,0.029557770319671686,0.10239964566380885,-0.01766664790512835,-0.0009862146696835857,0.07008168946276346,-0.0040124275610776,0.13652284128822822,0.1127554638510609
HDC,,,,,,,,,0.07332323830165312,,0.021401612314324612,,,,,,0.04498025493344983,,,,,,,-0.0013758609824805691,0.034987314056082575,
COL11A1,0.04363465200756671,,0.07338129442161971,0.03286388054025682,0.06562617164371633,0.015344593579418628,0.10393170247070524,0.48609631354324717,0.00019833208226695953,0.07274132416497969,-0.025872632376656136,-0.050871726405426615,0.014306142496756291,0.037100627280102334,0.012333887143307591,-0.029270226152342645,,0.040199379146765114,0.10522087502873924,0.07857307584316428,0.02348483780577017,-0.008747991736722312,,-0.02242405323385065,0.13095387996685265,-0.08856115506965895
NUCB2,0.11775255222380104,-0.019943798259036322,0.07692481401470554,0.012723607283875678,0.11276113141344947,-0.02887707365901693,0.049200395479174694,-0.029463397213811235,0.024504381696625815,0.005429855829249099,0.03961064393181873,-0.08704025289462392,0.028811997435254692,0.08895514640699245,0.08070233915782965,-0.09269711486040247,0.07880774663421884,0.06463935712408268,0.04318482011976424,0.10784710663928075,-0.030888037341383047,0.05731489627860663,0.056552161512595636,-0.04142811702579323,0.07209688904194517,0.0664080278421536
FGF16,,,,,,,,,,,,,,,,,,,,,,,,,0.04676313788920072,
CXCL1,,0.025407135545549193,-0.03649416025010852,-0.01509814972021968,-0.04558173029084843,-0.011243146761369085,0.011056709787067309,,0.03245249053947334,0.02423310034546192,-0.0073447814165992905,0.07793612611927321,0.09541288677015414,0.0018473115698084406,0.006450922416128356,0.006407914986376085,0.002300512211611953,,0.2501009082791712,0.15644091031531557,0.03014938503311001,-0.024343060208944754,0.09445571481452976,0.08557461721219212,0.12829173694235899,0.02942125864984759
VCAN,0.01527021211023213,0.08241581112283544,-0.024981794694955442,0.026824514641239555,-0.20561193225157823,0.05006301219690394,0.11095428887137213,0.4575637333652786,0.25015478809429087,0.01794291116830522,0.06516297543257306,-0.014694722255299664,0.05404438651038766,0.3110560317612228,-0.08496933048987557,-0.28091422973020447,-0.14035993460880922,-0.0762047788524306,-0.2541545569213896,-0.17895569578568657,-0.0512244354111733,0.06179517263433713,0.10283523331548795,-0.048915365246032586,0.18754062870450375,0.08607843043046542
MMP7,,-0.039521155130855905,0.09367608205014645,,,-0.02095427103732135,,0.07150849962286156,-0.012375320278109352,-0.029741391318593706,0.05907843544156836,0.06413419102533958,0.027365881096965555,-0.006133957469666615,-0.013220507423562722,0.08950774720922325,,,0.21300212517252384,0.11147998614685599,,0.013791828249188225,,0.005824903425462625,0.16286804019222573,
PTPN6,0.04640328923792732,0.017760031334346123,0.11487698295874597,0.00014472601488645643,-0.0760623162822548,0.07617362341368857,0.0495814366384105,0.14896509349204565,0.11411404675054687,0.04591904941430868,-0.016116865991271385,0.15821403350576288,-0.015291810854390518,0.08021093041958534,0.04985730264514705,-0.0300612390982863,0.004303579770377826,-0.019402654794170696,-0.02272519713379452,0.008224823525448257,0.06268354574004321,-0.009886707632880453,0.08808492429675491,0.1203430175577124,0.13030953044883956,0.12980060410537833
PTGS2,0.05114530230574053,-0.03821041660006553,0.13188202502555718,-0.0130462763741678,0.2962411470428728,0.0026281129961760593,0.13544958165263235,0.028604715103543215,-0.2313026072738684,0.011277185319057633,-0.01801764739908671,0.06942165056972152,-0.01036192035431744,0.0363380812766885,-0.0778903173899422,0.043796742939160416,0.062138458967827034,0.07200220631340089,0.30157358824562464,0.10064302582119293,0.06195068413769683,0.0018235825699053011,-0.07068209045161893,-0.08075661641061141,0.15256548677767862,-0.045935950605549676
XCL1,-0.03741044233357555,,0.012037086719341698,,,-0.013575064965708787,-0.04320777841761322,,,0.017815830354742747,,0.03419149251812785,-0.0324508468335228,,,,,,,,,,,,0.05272100105975985,
CD58,-0.01705626196256778,-0.014673708837244013,0.04641336415072148,0.013650668821822509,-0.07874554139546573,0.031760665632856545,-0.031796969674904495,0.08151433812640632,0.212306320768255,0.06836421965244201,0.045763864037449156,0.03443229677646741,0.04133460829714275,0.13785538389688648,0.035784984241101596,-0.1317150531566086,0.027396483663530535,-0.019268525527950477,0.030252409730097622,0.038944287544540795,0.06091906985390418,0.02885631986612017,0.03390216377749597,0.10625366324301755,0.06654791979074853,-0.00153984864276378
TNFSF14,-0.053361657690346946,-0.034384299765197454,0.0544751665796595,0.05789920784637715,-0.032142393655965815,-0.02456422945844266,0.08793959953807667,,0.06057313031985926,-0.01616294522545771,-0.010194487307912338,0.11617027647858434,,,0.004811536927276084,0.08557679313670503,,0.029693936792921316,0.06831975468549167,0.0455541715251306,0.007022309611530497,0.04450483108004816,-0.022538361614960725,0.020219406032582436,0.028725845064520146,-0.06599138165344641
CNTN4,,0.015992994512534806,-0.045197336872847424,0.062443847990808515,-0.04522580206469169,0.01574066680805306,-0.15080906640438307,-0.1862051279587389,-0.12430701194491099,-0.04778641846188626,-0.0001240430386149587,-0.2058635693446234,,-0.12529118102182718,-0.08197015187855768,,,0.016337594006147163,-0.038553104660778686,-0.05322906030239407,-0.031228857125016864,-0.015702065173787465,-0.07451243116709377,-0.036678407725417785,-0.06793995086722268,-0.028389941001993147
NTF4,,,,,,-0.07710631243127786,,,,,,,,,,,,,,,,,,,,
INSL3,,,0.008714800944228891,,,-0.013499048181916572,,,,-0.006394018211039246,,,,,,,,,-0.029177439320695636,0.0009452087444658624,,0.02730275172486316,,0.0351336239152627,,
BTLA,,,,,,0.024557281213375137,-0.014673737098413941,,,,0.010106849215011695,,,,,,,0.034223123005455235,,,,,,-0.02203282222119551,,
MFNG,-0.001879115118358412,0.05654982522033157,0.03435248507834691,0.07092533464035386,-0.02764799275160531,0.02130048007710594,-0.025949257205289088,0.27266924450216834,0.12200733778810322,-0.08041143126441706,0.027289095667451774,0.08339501568641114,0.031013238470339308,-0.03306395956981935,0.01549900580091065,-0.0433560689798379,-0.038267604435254524,0.047762427186993035,-0.09457425753957546,-0.09127406794547241,0.01712969330238049,0.015432957045364772,0.018654631434422923,0.00080930271134417,0.07471682015883205,-0.02465184781944896
ICAM1,-0.023498630990567225,-0.02863237615850473,0.07666523363493968,0.02070829979202106,0.006683855279308127,-0.004170683265512087,0.26428136152519366,0.10538762434529632,0.17132391900929722,0.10016701593787376,0.059763926693809685,0.10996731237955139,-0.068739357602693,0.03288636281598881,0.11260033094473654,0.2643540455776881,-0.042117633876422395,0.062218434850801425,0.1763080646057223,0.20075899286333262,0.057532607046319136,-0.06302647330132513,0.013052119214099283,0.009282124749129326,0.21203401760953028,-0.034279573068269
PROS1,-0.009077645060172713,0.013979904587915853,0.12170976167983352,0.09263004751306987,-0.06962371642098496,-0.06626831054515293,0.1422918314223859,0.19484026549408828,0.18314650127150237,0.19748591993612843,0.03457050611306458,0.10388163986297881,0.016906892834652843,0.04467624601481281,0.06057144238539369,0.08982464752088938,0.08854675768378749,0.028892909292125676,0.04801072197049214,0.06886894277745312,0.10545144678431666,-0.11059753965318636,-0.01831783692503321,0.09197974713884288,0.16321472059600006,0.05660678351467575
CLCF1,-0.031761385701123794,0.005533674943229102,0.07278047295059999,0.04684967443475434,0.04017186366404976,0.007781269502752399,0.10533123920922462,0.14895462625965408,0.05567175229638737,0.15151419811764433,0.026845738504707423,0.04821996688155033,0.01685723842189536,0.12624822407613956,0.004855583791151541,0.21117610693328462,-0.012290659286369049,0.050242967738417486,0.06692183325218119,0.02682014082648184,0.08516512238072078,-0.04299620125197382,0.09987844585360202,0.04351115348913417,0.238486778285128,
PSAP,-0.0549083484621414,0.046820265518026344,0.18609817808022402,0.0545607569892413,-0.0444019222756342,-0.02804394952691694,0.09778140004197472,-0.3292285318297714,-0.11879772053600877,-0.15323171332980706,0.06150447003890554,0.18212057030306014,-0.05108982761479915,-0.3873150962824633,0.17011097512587128,0.13359710000151254,0.20538020915546873,0.08963864840055973,0.31420354714751525,0.22932179461783436,0.07344563699443528,0.08354242730664388,0.008839857715011844,0.1104915596298538,0.0928157113311421,0.1510736551639786
EFEMP1,-0.07134172400473734,-0.038271270286142245,0.1462822385670725,0.15458156923652266,-0.18592462158223724,-0.02544933934662707,0.1410747533549855,0.21244842098990901,0.2438987074634929,-0.1568260895284044,0.07765256291898484,0.21985470582874245,0.041641522559797854,0.2335726738417962,0.08894424456427436,0.1561747382822114,-0.023455305002548534,0.04721486743823156,0.01325797572977086,0.015883754489213912,0.0998144864110146,0.029321498901720217,0.015437653956041556,0.04119607548155407,0.17120703193507478,0.025410149526000445
C1QTNF1,0.04259935185721691,0.025982516907729892,0.07144173041723657,0.033566188368047825,0.11623513382877454,0.007537852948043687,0.03607226884746404,0.05317971833222656,0.16040753599482568,0.0616035117626078,0.00979973296486301,0.07107789015265077,0.043294413932284635,0.1774749760536851,0.031491612904309955,0.13150426505118679,0.021624936943212124,-0.02894189161779798,0.2613795642866312,0.1774687593479301,0.07718820536310438,0.15803698659663162,0.027845396214111143,-0.09266218357804255,0.2561373309739232,0.009318055108639539
ALB,0.029136253911809604,0.0181670143783908,-0.008484277057197225,0.009331040414431533,,0.07258744049232241,0.025279575238458044,0.06571357841404532,0.018792345012332904,0.04483069976730119,-0.06763713867353699,0.18495233124850186,0.006755044824033291,0.05066209260022116,0.04797463565952772,0.12167914014049513,-0.03196995216060306,0.006803103211537964,0.02552897957323627,0.041708206593574125,-0.03548394773871881,0.0025880352757949436,-0.031378826040282345,-0.021845180317015586,0.04137186289731705,0.06335310170563437
CCL13,,,,,,,,,,,,,0.02543947608510255,,,,,,0.10273254817611978,,,0.01665940275620097,,,,
EFNA3,0.044527425431977026,-0.012208603229345102,-0.026223421920143094,-0.0016658725467781103,-0.02075603328489181,-0.00528573835955578,0.07415143880721681,-0.16982622926097055,-0.27299446238331965,-0.03730141284215079,-0.09223681191374573,-0.16880623092463395,-0.07388239692971953,0.06367722601004529,0.03197277709477202,0.08647487608731147,0.06038015582316494,0.1274971916142131,0.01829178574594104,-0.07993920998012544,0.03736702820513302,-0.03330247832187609,-0.046795305905731464,-0.044456389193585126,-0.04010076576344008,-0.0726051674491217
DRAXIN,0.03121410352712572,0.11387274568279317,-0.012062656558517714,0.07439806936644024,0.06963321303316589,0.022080211215630488,0.03559150811280299,0.23564836851681883,0.16060318677171861,0.20446341783400712,-0.015058804606322503,0.06791151108772596,0.11752750090836163,0.22656811960224035,0.12527451036438494,0.34740276675878057,0.0335877580024378,0.0020933347512813835,0.18653504288989098,0.05228957673773902,0.09903338435355076,0.15435683534934902,0.04760648920172949,0.12297750234499921,0.11055885769974874,0.05948808196842373
RAET1L,,,0.020778274475925906,,,,,,,,-0.056278149047199,,,,,,,,,-0.050785278788478744,,-0.06677142700238785,,,,
NPTX2,0.007980700541064208,0.0026175510105982906,0.027816636577332264,-0.06436957766176438,-0.09098914693589723,0.016472291512197614,-0.14749542339752475,-0.3562977181625394,-0.3134655948460157,-0.2651720973019311,0.004309661592307069,0.16991521020259484,0.07721133360791255,0.16964475096144171,0.15495116293345934,0.08433120470246802,,0.029369079419075843,0.04417510006888377,0.046999762198538436,0.09891644844943066,-0.005272418551882428,-0.0038735640233133212,-0.00026516769284680853,0.12170228140394396,-0.008216031677169841
FGF11,-0.030805998455677653,0.011263040504513936,0.013262439877699216,0.0355510732558916,0.12420178563492673,0.009431928825921119,0.11119977315945852,0.27302612551884,0.10078208114550916,0.09844661814419917,-0.017578521728763532,-0.08370918655088547,-0.05724136141538833,0.26705589669932894,-0.004017222866693074,0.2032752471650594,0.07589572403113375,0.1015241465205639,0.14941118404433848,0.03110073151805468,0.04314365787619814,0.14875377958100983,-0.0167873754585893,-0.0048356077867579665,0.1967386972889984,0.06044555558299835
CD59,-0.0023018109715123476,0.06526066896647796,0.11776519121692662,6.323870127148802e-05,-0.01645163843464151,-0.037829345051504926,-0.08435214583712801,-0.18166611186162546,-0.21755550398809959,-0.15222182613531854,-0.04124493336577568,0.13769733285364288,0.07044058516420681,-0.29413923410829296,-0.03372866947778958,-0.2726898369142019,-0.01459479779413338,0.04254213365622352,0.148970302665705,0.23017296861605308,0.05582601422214135,-0.09962873924084908,0.03595467729250377,0.0033172531660316694,-0.02757886664337156,0.09286839679248851
COL9A2,0.04527670470968102,0.05036162593619566,0.008454779882427493,0.011540060557238425,-0.15501404846681732,0.04264036453968212,-0.11173577080322834,0.2469920548921753,0.22707443673943806,-0.03158623379208047,0.07547597520844025,0.14420651959124092,0.10861869659012026,0.1437818735636196,0.1002147409789764,-0.19444362731200038,0.0018360849921667112,-0.06739112246547695,-0.14658000112625055,-0.059311598940811054,0.05632893137050617,0.024588684202349758,0.09502111608372651,0.09043112840506581,0.016179798134033637,0.11489223431922856
DLL3,-0.07916291009331398,0.002440398025351177,-0.032832881379296616,0.07773991402478692,-0.24370065010129854,0.0009894948878710476,-0.05724371720094821,0.3382429294854248,0.11242297210660837,-0.1644819860163703,-0.026467434734609413,-0.16566384433254622,0.034996549871310324,-0.026973973522510124,-0.08233713668566912,-0.1633220860365287,-0.1432876733221673,0.021272539098635055,-0.3001475248570487,-0.16873695012682424,0.05535872794246916,0.029318065970339955,0.027181755180799627,-0.035022217302355725,-0.03403084188522464,0.01112859719934506
FGF5,,,,,,,,,-0.013598183134331981,,,-0.030249732614612855,-0.0016149646451893685,,,,,,,,,,,0.011443277541670762,0.11281643459777538,
LIN7C,0.045217627896913797,0.013192588522741286,0.004693270796442495,0.05652293184553197,-0.06714436348731845,-0.014252607401133717,0.00107032973001019,0.03640831680781155,0.09207013375863962,0.054612377794454804,-0.023338816593906568,-0.019068950660074725,0.06966544378818576,0.0013726904772160561,0.051232208874807506,-0.11345365805634304,-0.014765832193195045,0.04533438146146959,-0.1489489299482705,-0.07406504114766932,-0.025855782010808567,0.007905381444482279,0.03293864584220417,0.019995449913583044,-0.10362198125775059,0.08437346919311303
GDF7,-0.07749800895912334,-0.015902462688142507,-0.023642154890641205,-0.020288556433861595,,-0.05956578183986621,,0.022236719108277195,0.04429271500402141,-0.05485143522028502,-0.038438336253808464,-0.1616029511639403,,,,,,-0.04082890396254107,,0.021343010360720588,0.014686695167314972,0.048699778804759425,,0.017905136692756264,-0.03228748007006949,
PSPN,-0.013621450637589332,-0.02860185356608553,0.0014101674926991657,0.029115960888277465,-0.01895877816655019,-0.03198948883047657,-0.010540477116163053,0.02299631313454964,0.07848758148510428,0.05317933324828725,-0.016812434253833754,-0.01763595120208744,0.013643458481188928,-0.045496665267561534,0.08214419081555965,0.03825172876801666,0.02404583237504229,0.05264400838857705,0.04312207951039299,-0.010947320533530768,0.03780101045131109,-0.0020300964252342284,0.08024482112259773,0.07917800863791796,-0.029053485547615113,-0.027231461961486104
ANGPT1,0.09329037270056344,-0.012925276519248697,0.05094020754945473,0.021827521063827012,-0.015046586256206465,0.012102860728468407,-0.07134750015175341,0.0032446971599348964,0.11899491099294687,-0.19564827856839015,0.013222539452370962,0.17144170064436415,0.0749721808537417,0.0010673469491010296,-0.09366887549260862,0.019721414217701155,-0.01787731891706333,0.009736415971349707,0.1096121298523978,-0.07532315260094988,0.036648951597558155,-0.026858917590435405,-0.03497705778034979,-0.04278732047589724,-0.03765546491932496,0.15319712843300426
PNOC,0.030810973920287383,0.06275409199687894,-0.08225603680993893,-0.06577196914653362,-0.03543345406440802,0.034396846084906264,-0.1876918686041267,-0.25731662827198154,-0.28486319308188535,-0.2007744205501268,-0.03571350114700759,-0.14620296712035794,0.056994511201773734,-0.1634429848867691,,,,,,0.04284408527349984,,-0.0028112815322576083,0.0017361672129815172,0.02910965879989331,-0.08395846384845936,-0.04990944596005806
L1CAM,0.04579014876994165,-0.0028358861792936708,-0.03639411320519224,0.05538666799224774,0.11080771048364085,0.016349873702953936,0.09699610650386038,-0.08912354596467251,-0.24573264417579957,-0.087505840030242,-0.054546753543389906,-0.12855164018691853,-0.05992588355953515,-0.42003717753625286,-0.03403312671374143,0.12898189292649334,0.08874141644005624,-0.006430868799072755,0.21353367336576887,0.08922273594213748,0.031997320251338,0.10723585588007035,-0.0037543474014449657,0.0027855692022806435,-0.15144992869948182,-0.10752283690355345
APOA1,0.03164504811013278,-0.0130237906895207,-0.02626490951949029,0.018026602174479236,-0.04741187132514795,0.010078661220201988,0.06056083734349743,0.1153901091484514,0.038018925169121795,-0.038739853836339606,0.03034297615418239,-0.04595933532461369,0.010791314885475727,0.012346489481155088,-0.02665608647938909,0.014680049953270664,0.012346120625223896,-0.0010555317993527287,0.04870364973735504,0.003345795594013099,0.06280400386773842,0.05536797504800368,,0.036308991397379746,0.07027955786049515,0.01342920418088545
PSEN1,0.05209922563679053,0.05989367509768116,0.14623124518513844,0.04728551880350934,-0.026260649929690256,0.03950950355550919,-0.04334479868339029,0.06677773893474372,0.09459696850470144,-0.015226043540859664,-0.009985285196452054,0.2900849189472102,0.081355796312176,0.1981859763004867,0.014673330907612915,-0.18025913650773717,0.04683205657288315,0.011846756575076972,0.006944515118727896,0.06438524179729455,-0.05368194623977872,-0.006215137979609299,0.006550120256389665,-0.011381469110585544,0.067396085082005,0.14535478199862625
CALM2,-0.022171369069220324,-0.1218312498945714,-0.10068598560359789,0.0015458283772319934,-0.22490456662835648,0.00945188186056229,-0.2770823811273183,-0.3885328904846868,-0.293372239603329,-0.26755508140127604,-0.07287471493735226,-0.2972564735894253,0.07283051748551739,-0.3888389484451011,-0.014573488115670585,-0.3832739238835585,-0.1418627581954305,-0.09248907792906663,-0.2287099542822932,-0.1875664097358041,-0.02789039569899761,-0.07465141630968926,-0.13712240827408778,-0.0859451172119503,-0.37868553573403085,0.12828450210114153
CLEC2B,0.01131793579102422,0.030627009972720123,0.11276226668660422,0.026661336895383577,0.19613827824136365,-0.029109834130084257,0.12490712388576428,0.09457275281830939,0.182117482151214,0.02317378038857727,-0.06254304324853746,0.10692951970972982,-0.0230889227070497,-0.007353786552880149,-0.01248933508845356,0.16249274297647923,0.0050989890160205165,0.028915093257276384,-0.00041220974134627725,0.041193227448988685,-0.0015781521764218218,0.005023029493448303,0.010394873382692977,0.062427880259040475,0.17895391640429184,0.007151564991190577
NTNG1,0.0018967301341524677,-0.10116289167038187,0.03231090992980235,0.03448133417067053,,-0.0019311042803068464,-0.02268226734748045,0.006788896156937643,0.054480426845687574,-0.042516607139681625,0.004748436859274342,-0.00561828808809935,0.010085829505212111,-0.1630550574639936,-0.005504203439597445,0.13540433394411117,0.03489846358076892,-0.022504633903637467,-0.05677882925685047,-0.1145516693046421,-0.04565701745729421,0.03874502871433789,-0.11154800028681185,0.021801243837777498,0.09007108489665204,-0.1612564404166664
LRIG1,0.004757542362744279,0.022934163220334543,0.03677179033454545,-0.007236115457673612,-0.17778479174770923,0.006339957803251436,0.060814467399355,0.0260846805517063,0.18594984296837938,0.1069672083029916,0.056022034563074044,0.1665059424417937,-0.029301205124103148,0.20940761892184842,-0.0709477498807518,-0.29047651160672844,-0.009575583099196362,0.019669421497523307,-0.3226804785267936,-0.06979202983638508,0.12465712031136467,-0.08881143067730035,0.040344954712499964,0.013425866383246618,-0.10068549599995127,0.0228212006315309
CPAMD8,-0.042254949563754474,,-0.021678129933058097,,,0.016515118639171367,0.03756781169760333,-0.03903057645725603,-0.0344543612011428,0.010813015416905731,0.030891237985085244,-0.002078967451176573,,-0.07521064733340727,0.03850971683413323,,-0.06697178703360757,0.07229824188849428,,0.02657842270563804,-0.0188302245942953,,-0.05675328855381703,0.01944290096561099,0.017755626923933197,0.09031096800483242
GHRL,-0.012561253948527808,,0.0022801984201810312,0.0026849833211800285,,0.010360338873559784,-0.004505205049772451,-0.015558066592836336,-0.045884635110153976,-0.03542214504381272,0.006066246944499345,-0.04419555434209136,,-0.020883537592382734,-0.012546556105785733,-0.12201414838237229,-0.07602741133410862,0.021397194006992037,,,0.010222995175697304,0.013117974520497941,,-0.03508784992650825,0.031235169565661906,
NPY,0.013373398367105124,-0.05602833532550387,0.06265451146198625,-0.052098457209051485,-6.708295158191577e-05,-0.026212550843130566,-0.09189042658782581,-0.24770072256261455,-0.17018848150512303,-0.11776162048139285,-0.005416823132173465,0.008328727182704993,,-0.1061649368848223,-0.021903152913013757,0.02223946368595266,,-0.0610271235340242,0.13497202682042184,0.11654984827060946,0.05193095219672089,0.004205612165047781,-0.10430748660960848,0.009389379317052622,-0.16422481896745136,0.016069870659920698
MMP2,0.03603305307256884,0.05823133112053531,0.09844163498581482,0.08579775810098898,-0.10127463710326247,0.031683348122128266,-0.10281994945239298,0.3189775716348555,0.18520862923164266,-0.015276579596344465,-0.012206252751538579,0.1110731560557897,-0.13959291167469662,0.302931464888369,0.10333283879684912,-0.1731165905420388,0.00627505243116663,-0.0034144274652192744,0.07971994680191122,0.08074312745663861,0.08489970090682165,0.0918117327558056,-0.026130121981628077,0.09926695591459657,0.06967549446652986,0.020326269385685235
LHB,,,,,,-0.001550566347787778,,,,,,,,,,,,,,,,,,,,
PPY,,,0.01104846754571157,,,0.043366294766766116,,,,-0.02342242521418843,,,-0.06472562130987586,,,,,,0.13072670465461259,0.08892275594942153,,0.03902298979796296,,0.04032049573391348,0.05830491175185093,
ALKAL2,-0.020204065121547116,0.0035462166155686564,0.013431534933163338,-0.03571260913383475,,0.026032910074238316,,-0.0015756147111853048,0.02402286417441607,-0.009218710411856039,0.05707855739219916,0.1871003013965431,0.008676572102907638,0.15688761115296132,0.005059845097207117,-0.027442660125382816,,-0.04761332861315217,0.0523609937155429,0.028964543416202016,0.04175567550278353,-0.04294351297294263,,-0.03811592945641751,-0.015591674596422224,0.058816798995361796
CSF1,-0.03756609517991603,-0.0006223603443390933,0.0945556651127231,-0.002433383721472088,-0.11142640569351536,-0.002152260943185052,0.25258304243265267,0.19775055354592738,0.17177445674212394,0.03314045594324909,-0.020660915590681332,0.1859662167408794,0.030068519372474387,0.18522523582814227,0.012443114487150768,0.2138808982155866,-0.04211457820200323,-0.036191219220736,0.18897393295308765,0.09430585657326913,0.10494129163427805,0.09463379716996095,0.052695076250755854,0.06891119508390707,0.1228787472124706,0.14953738403266925
SEMA4C,0.03195177675009641,-0.03953559990721374,0.08980536726073295,0.021069643687491396,-0.10790278503385452,-0.03239177126299601,-0.013303324293563991,0.18256063739295694,0.06002830966834311,0.04226863681441993,-0.007119998677308731,0.0961114773063306,0.039461770806253404,0.09372431693148121,0.01284906378321035,-0.0967947934800232,-0.05688585120499439,-0.04684408029564997,-0.004581398427420858,0.08169452249041376,-0.015017739663246094,0.042341167075588985,0.004328560507708071,0.052922997065974565,-0.03173760173538478,0.18354982466962444
BMP8A,,,,,,,,,,,,,,,,,,,,,,,,-0.030412090486823307,,
ICAM2,0.08903130863619718,0.01487784087339873,0.014717825177893284,0.03581846781555027,-0.039365250344835366,0.04717792028978917,-0.043641661038588644,0.12273798775317368,0.06450236348695536,0.0070703171357056685,0.045377439966682365,-0.01037443432247102,0.024213918194936353,-0.06926834684412704,-0.008628068372978895,-0.1403008555962417,0.03576699470376301,0.04736896334879204,-0.152880631470343,0.001887402612771522,0.029271419462626243,0.034971669817342545,0.058002100966572614,0.020219664525568223,-0.0628442430641493,0.055060633086014735
SYTL3,-0.03515254384604768,0.038609636477613105,0.06313288323913757,0.0033009158367415725,0.05438230280952089,0.01359704865261557,0.04114881649406541,0.044477553464165535,0.15811490294195804,-0.009917213429020043,-0.041801911891726745,0.04365987863295439,-0.05043679781085068,0.061671597148855076,0.0018989717139073457,0.1425010566298706,0.08569673432784786,0.08631335447671865,0.06129992970083234,0.05008982626156688,0.023277505160973162,-0.039387674317460306,0.008598387102971823,-0.02174068864001351,0.11441224514224194,
IL1A,0.025151511164945115,0.057298534240563394,-0.002895677809155692,0.01450320964904714,0.06966833373051609,0.04185741053257191,0.12354798503523909,0.03988416943977307,0.07108783592294692,0.09845324360409985,-0.03394142013865712,0.0574008203173101,,0.03115451869788527,-0.08197547638556309,0.012287821905565353,-0.028082536253846987,0.04068494316372016,0.07856830801320819,-0.0016303724738271931,0.03322738105291966,0.09447112933301673,0.002763648018363744,-0.015483196684159596,0.07459988304400904,0.1348427483920186
HLA-G,,0.06346689639507049,-0.003414116326077181,,,-0.04067957928788975,,0.01864285331205628,,,,,,,,0.08935275456708952,-0.04571303167217439,,0.03764387223675623,0.017719953047951424,,0.007380634791153751,,,,
PGF,0.04063129712979003,0.07901327729068673,0.11848162444188244,0.03792045436469918,0.06350219514040789,-0.006751089278579542,-0.042847753530384426,0.19794204871166404,0.19339541041183958,0.0579004694050836,-0.0329905136121955,0.031200193781951085,0.11797943396783224,0.176365887299305,-0.0365079164438455,-0.22167681132491862,0.19879638833159333,0.06895516118194368,-0.14016356209088232,-0.03677421457259466,0.14924941791131224,-0.03403771762881897,0.02997430010387932,0.04542461648207479,-0.040249631032712584,-0.026464668291830133
LGALS8,0.015529494660306262,0.037443139158019695,0.09133205047407571,0.020277368044527698,-0.014989634153012769,0.013497015276269316,0.0718635843224591,-0.006100626342400848,-0.012599228720958937,0.01209269843962316,-0.04882998326930133,-0.07659599292091053,0.036676810125065205,-0.04307288959962213,0.00010699457689617441,0.04032241374874867,-0.02608725304611926,0.009769557816302878,0.06658502013089995,0.017856437832485153,-0.012031465026875103,0.023578471374182824,0.0325749743263742,0.014699228626101447,0.062231448210916966,0.12024562779988433
DKK3,-0.015526612844507523,-0.06666592373353396,-0.04767328997064478,-0.07563221783425636,-0.18529668930482518,0.02241682302338115,-0.2367604175522585,-0.4423284493329544,-0.29775555837325,-0.11891028590817815,-0.045075846657446614,-0.3341635874967601,0.018506867705079096,-0.42560171045373363,-0.041194443203875275,-0.2695214101153199,-0.10035581576917135,-0.02525396300437887,-0.06333136829769971,-0.0005549232589325037,0.025683618294853588,-0.14729801755107053,-0.08672417978202952,0.09049399406312189,-0.3414911354768342,-0.1591902277213848
COL16A1,0.026623969112359144,0.008793584061012027,0.06713006791819866,0.012994152148260187,-0.08346736128932461,0.012553937654211547,0.03623446465599155,0.059751116689554476,0.1356659495949622,0.11015709935893209,0.03573233346827755,0.051469794705448636,0.16607710747913373,0.3003322267712621,0.06844102012308384,-0.18336163823610294,0.022905443518959605,0.09787840112589176,0.07305964644692349,0.1421895749460289,0.04093284476056237,0.04436834400669727,-0.0816914639008687,0.06838713933154295,0.06128545119308159,0.07251113503861314
TPH1,-0.04767292429767413,0.04521669031750915,0.0303481725952364,,-0.03381365511253685,0.06623493639241584,0.0015771244882055954,-0.030928164376161745,0.009744198125420123,0.04004294731048792,,,,0.040820279808464074,,-0.03603047512581751,0.015947349543756175,,0.007737311471233765,0.08181650864042746,0.034293650930608,-0.018550373133681276,,0.04656207582653595,0.07107155835643358,0.004312684327288009
TNC,0.09109132531552021,-0.07030651504134186,0.12007348657983881,0.02748722412196642,0.1399516971148429,-0.011242878417262602,0.18821298995403618,0.40699615014523366,0.2686193231464765,0.3174034977080327,0.013876563029029777,0.2810594165755155,-0.10102976715953813,0.39634301951463263,-0.014983738569236712,0.4305802691688444,-0.1079173228127417,0.05935717280571432,0.3058707185069339,0.1782210541974941,0.10921708624130862,0.12678215092474074,0.02860224901321035,0.0051822532446330356,0.17495962038059634,0.023310897819513617
TNFSF9,-0.02151452317335537,0.035494428004538336,0.05937121181538457,0.02222017987998282,-0.02633484949517735,-0.052831220193295725,-0.08582807844322218,0.001065953217586835,-0.11233882588017842,-0.05151516900393027,-0.035627698381719544,0.06420441192076881,-0.021506414869017915,-0.0769743829285687,,,0.016461388097096186,0.04377856876915091,-0.05469840295623276,0.07788765445137132,0.00523176062511939,-0.020349495249286052,-0.023012015749078598,0.013369313783921769,0.06034105806792873,-0.07235279213818192
C4A,,,,-0.052608407883477516,,-0.025590829788465604,,,,-0.026858735588710155,,0.06096127231317181,0.018400037550260727,-0.0010275531226039115,,0.023287343483105037,,,0.04484638710537848,,0.055045370244939384,-0.00740202673715887,0.04796006022879977,0.012776276582892366,,
CNTN2,-0.06814378425341001,0.00011869740296848473,0.025181720735449758,0.020615079640527396,-0.003631799225578707,-0.017232051103981513,-0.0880065654442566,0.18171943788444053,0.09458253938404855,-0.04664705637336934,0.011842536871136868,0.36497284122394286,0.02575384394752776,0.031046069727178185,-0.05318875796221538,0.030942777242101125,-0.057969255008437554,-0.10233536597615393,-0.15408323224308798,-0.029614859669291175,-0.09857410364537696,0.016520708500890206,0.19913657347355404,0.009886755256759954,-0.16973468075360992,0.21950115027242978
F7,,,0.031987600658676334,,,,,0.002323076769340841,-0.008484279479551899,,,,0.007674630232869237,,,,,,-0.029770893123984933,,,0.05583382820646364,,,0.009419547718898337,
LUM,0.041294088088065006,-0.0038735243676407396,0.09313056624591563,0.07830513807928169,-0.09821232954761083,0.04862323078245724,-0.007909174490788935,0.08622487327090533,0.1980997298609173,0.09978392429916717,0.10243394976246646,0.04390404357676104,-0.08014434468056171,0.01971086977078105,0.012307472543080284,-0.2471011370251254,-0.00905800815316789,0.022816601419505304,-0.10322564433851236,0.06698267990743356,0.14842984749617333,-0.07755796648539143,0.017251328321842552,0.08496440509521934,0.14591736549244982,
IZUMO1,0.04662553080527405,,,,,,,,,,,,,,,,,,,,,,,,,
BTC,,,0.03724412869010945,-0.0037785172292658428,,-0.011674400330362338,0.013685380494939371,,,,0.04109841561992677,0.044771563815169856,,,,,-0.10670689178695257,,-0.023528090078522086,0.051838771207638766,-0.013956160112771688,-0.04369520921950658,,0.012690405344146043,0.06542168121046749,
APOC1,-0.09361230468633844,0.047954371658982385,0.0802659946905919,0.0844510778670915,-0.0766149480688769,-0.02660529359307312,-0.20544364273065177,0.44699535957189973,0.30100152851705075,-0.06079041996359113,-0.002008987744874201,0.40798308774034586,0.09391253127081348,0.22059781604277273,0.12427183984428343,0.07072490748005521,0.049672354463164314,-0.10674170797598231,-0.301547669033354,-0.12499626980107427,0.0438193309652997,0.010178450706491707,0.10577589404784889,0.0686670016180919,0.06894086403960896,0.07337767335501622
PKM,-0.02600750633466693,-0.025429550496977496,0.08168171241579235,-0.0628276059751972,0.141507731139413,0.010356970951014337,0.1807015874136159,-0.11360330651993458,0.0872751231382859,0.20071288392294606,-0.037453651136320085,-0.2763690513446988,0.06726716526211392,0.22908082371532312,0.08464431681383806,0.5067686160803463,0.18163246210061426,0.08405336873094693,0.3342101006252792,0.15605859182292803,0.08532724025314194,0.08701891043543691,-0.09071146131872224,0.024631685677755574,0.21039793045654434,-0.02139978796218894
TNF,,0.0556107397433791,0.044458961207862635,0.024720826942470176,,-0.015259287307625845,0.021970518245199886,0.023616140813047592,0.051150505541219686,0.07236027993171366,0.07591888088950595,0.11649526380030027,0.027380436406746627,0.0805251371401611,0.03536069481592068,-0.0907470735974043,-0.12260084336083714,0.0055801023460006855,-0.032777336406320315,0.00833740471762353,,,,0.048381734888714764,0.04511929888017,0.12729080739984788
GNAS,0.07092094390177833,0.08350758766534966,-0.08044180584236195,0.0035480716844438153,0.08670463468739359,0.027571532666283486,-0.17437622421605803,-0.36282392798137286,-0.3247119914681434,-0.004703625434998298,-0.0206414515516058,-0.41397530353822615,-0.10825978425312999,0.37594791828608304,0.045392428248749984,0.30413243525777023,0.06313478783475823,-0.009110829612007003,0.09466525252332876,-0.021097332107356054,0.10188613107629244,0.06049527372877395,-0.23984634328819093,-0.0062069014468576975,-0.20520281588184355,-0.0149718717855646
BMP8B,0.0052903441014420715,-0.032986380070447685,-0.011745344070757063,0.007334681310399445,-0.03935174906468969,0.015373819167344774,0.08095878813552142,0.29150860468211737,0.008477788828598348,0.012540312035014038,0.013983540295612192,0.10729432383504019,0.04805824516485448,0.11361169386584993,-0.00635396373341442,-0.027694912250995997,0.038350854924416665,0.07297138524944541,0.0769182045521437,0.06342348017869368,0.04780920857331075,0.04754895934354811,0.06373294147255859,-0.012237847389365316,0.09293223778147329,0.11563117821234356
LIPH,,0.08810861872486266,0.007524671000224164,,-0.03861529899286937,-0.07484538469971268,,,,-0.057049324648649535,,,,,,-0.07124959292731367,,,-0.025799390592950926,0.03692962689789816,,-0.005542614023073191,,0.008722208175827657,0.000616144108063067,
CCL28,,-0.01834762059719124,0.005613968929447604,,,,,0.0018966119713567692,,0.014044200769831325,0.013713124469025102,-0.0922771827244429,,0.03580069742197425,,-0.09499251042079936,,,,,0.002198336212087124,,,-0.053194878928513815,0.035776169368133735,
PTPN11,0.06091267521153533,0.03453736810323593,-0.024012569859801786,0.021920031681848,-0.10000803086380834,-0.0391551794722847,-0.03714672876265371,0.05078309303913365,0.08121526496596337,0.009943130598791906,-0.012755890489800232,0.08496832453027685,0.049524683886298236,0.06761871161058389,0.060560522918778524,-0.1921171340708668,0.033391867272690834,0.00739110932575611,-0.011580582502508778,0.01189850256790482,-0.12771962965445993,-0.05432598215715832,-0.04176088235282847,-0.020666448255128988,-0.1390071228263666,0.0388984250610652
ADAM12,0.04667024898999097,0.08297698540932717,0.07207457137037432,-0.04194736601573057,-0.03029699757168541,0.04545189241392803,-0.022609430770963123,0.16770487422350178,0.16164230467372923,0.2513985808204599,0.029542062854573555,0.058266430469302334,0.044396411873918164,0.2218400143859468,0.052383652105142106,0.005558843028911811,0.054945593185045,-0.03804816749539016,0.15441036197331134,0.09025580824753378,0.136437838745537,0.06702084346836666,-0.01961998304240104,0.017999012850727553,0.07960089408112446,
EPO,,0.04876406362751687,-0.022468367549459915,,,-0.010357701251659036,0.03309759651405016,,,0.011198284378768415,,,-0.025246907339142838,0.03022277864964026,,,-0.017804458002622908,-0.06467507911688122,0.05466792716896115,0.02905848193847949,,-0.056539910821493164,,0.03886685551279656,,
EDN3,-0.014186984712887167,-0.05300447848967677,0.05818636943952403,0.08366315669760198,-0.0012840597025562182,-0.04235621008580342,-0.07834546316576357,-0.02978377275028155,0.02122559325659578,-0.009065177889456799,-0.011978096413928956,-0.06777844556772482,,-0.13627174672573816,,,,0.03573491046879743,0.059094137862760875,0.02684174407962713,-0.01783001713685443,-0.06057253280280896,,0.002948212013574876,0.04438544890056979,-0.04600297447345938
CCL22,,,,-0.028910725262753127,,,,,,-0.008389443774692359,,,,,,,,,0.10541734951460309,0.05692940076009723,-0.05448340342105815,-0.02859700491704304,0.0062241850923190675,0.0033535298785139825,,
CCL2,0.00595754148386487,-0.07148256366759527,0.1373496307900019,-0.034180744642374916,-0.10865375414797082,-0.05015451190845436,0.2723374426822775,0.10340001648840004,0.034202373316465313,-0.004221720442399561,0.07637959145177026,0.23476800516780877,0.099701740106865,0.17634005125542665,-0.012153045293549198,0.012206756798984711,-0.050826426562961234,0.07061798071736618,0.14666189818536435,0.0847324638863511,0.04478918241792986,0.04539924181148878,0.050319405797422445,0.01154494154591814,0.13850644627951508,0.11195513098174492
DSCAM,0.004519044317479751,0.1583244966600964,0.004797807337975171,-0.042172727804164804,-0.04102813492217631,0.0066966007990561585,-0.02154588778477166,0.2352561516429351,0.03752185628288391,0.009823442267701129,-0.040463653963939965,-0.10700840055245851,-0.016292385966339525,0.14500713806677562,0.021958966123602933,-0.014303025549218572,-0.015940808899347264,0.024249987290585577,-0.13640578187788022,-0.05321655384898258,0.04428053193729901,0.06102167653353859,0.00855321414192071,-0.006584426975706131,0.039529991531805704,-0.007090329107910661
GPHA2,,,0.04197810191579047,,,,,,,,,,,,,,,,,,,,,,,
ANG,0.08750628277726225,0.04136417243535972,0.06951611916703339,0.06401184382430772,0.1508091151562784,-0.03273009030653601,0.036169926227355174,0.01607853205067543,0.0509141717067187,0.12355035003357855,0.015161885263741933,0.013844563682598716,-0.053818660190168954,0.2030846490701032,0.01661488876392219,0.2801945725375877,0.010997287395085424,0.054639040508221354,0.10580267892873782,0.013846729685131403,0.050925902043569615,0.08359580335867267,0.055965244930676665,0.04211807720528917,0.1277016260215378,
FBLN2,-0.022498901216522055,0.015273010777353628,0.033580602700803014,0.025790484983953643,-0.11527455929002561,0.017370862621643557,-0.10297733275579847,-0.08694592261856006,-0.036636422532131126,-0.10829054985786933,0.0816423654728626,0.040909568794026706,0.04133255092607709,-0.08019168839380902,-0.052603450643069975,0.18468393804290326,,-0.02625913636051786,0.03576809422571443,0.04795948797967549,0.022812046114451916,-0.09182910667142852,-0.046499422010643734,0.06381220486704511,0.11532604327177662,0.007833739847422529
VTN,,0.02220066448062681,0.037508898098934235,,0.08982048372603367,0.04847017406060498,0.037516768640376286,0.03946276456442709,0.00024194752358401025,-0.009391032340031396,0.011136563998785013,,,0.036983571848476574,0.036162945469494306,-0.025573553354692323,0.017530967847679168,,-0.07342242731798523,0.044289029042596954,,0.0007437785814285593,,-0.010614229808091903,0.014512699502605829,
VEGFA,0.0759314522288613,0.02001530057392988,-0.014391099081568963,0.03708911298502446,0.40780720036096135,0.02577925178544377,0.2836080201522825,0.3231098057946205,0.0940818839575076,0.28308599887156755,0.010614123640005729,-0.019069137779939977,-0.1608428186535255,0.41659529732868367,0.13539223400052827,0.5382616468733358,0.17888743364655835,0.03914925779477005,0.36373144392003665,0.150315442745699,-0.009681891456112928,0.1527778206159082,0.025900514477142512,-0.02976681075784759,0.3101801959427339,0.13496953875337483
F10,,,,-0.023726831404931304,,,-0.057413925673485806,-0.0006228665016561416,-0.029437311857724486,-0.0892561190153721,0.08747630201640658,0.035944237879922986,0.01758523359800991,,-0.04006082126342843,,0.09205581993503435,,,0.0027730719230965365,0.0575073184643812,-0.05981587930567042,0.044495178706956365,0.021977057677470484,0.014837328326060743,
SERPINA1,-0.05888897875627247,0.10201311414110831,0.08331939979933414,-0.008630795164292064,-0.10285560402681392,0.010330069567426221,0.11549981335365471,0.15085884021014284,0.1812766298773266,-0.0017743668171065388,-0.02523790641834687,0.2635907537769692,0.05951969475406874,0.12844856830885767,0.0032594067806241953,0.23930338488531472,0.00542601203993822,0.00231503412638162,0.1482617286580892,0.14727907251284042,0.10176250597967493,-0.010887034737226497,0.04456297274293205,0.10769148385653723,0.1984151099332014,-0.016971860715866906
VWF,0.000388759872544916,-0.0015301203797821246,0.07441250469319345,0.08996942435265903,-0.1331356218023358,0.005318808125037553,-0.14824830782878826,0.10658558888236323,0.18149939090735304,-0.049616135863441935,0.09262809312951203,0.11326307662934569,0.039547067233542,-0.14327753763997042,-0.0174263045046837,-0.21881669740479534,0.030707192193493663,0.035676243063643635,-0.1305750084132664,0.04708461320112231,0.09921930203821443,-0.0649175857304462,0.0993936374393904,0.02890632862801844,-0.144614504664222,0.019439113515343522
GDNF,,,0.004203367956864988,,0.03305218925980159,-0.00779159058964043,,0.1592618243588874,,,,,-0.05234332128815353,0.04590713746344755,,,4.5423435280906786e-05,0.00436765868740767,0.03963773219486682,-0.047115893256398166,,0.006328499928744493,,,,0.08816344540849799
VASP,-0.005594807081038281,-0.047826528176490524,0.14596696254787098,0.007457923700461381,0.03758817677796157,-0.024718385115328898,0.04064124806144127,0.20527540324181956,0.084528067192129,0.036118691997932946,0.03274993225472768,0.22836813378746615,0.056465616204868535,0.12989641580973316,0.019845523934067837,0.05291006963169706,0.07795743739833963,-0.03046330011198354,0.031616112555930505,0.06732817692266661,0.11325107501501405,-0.010455471200518714,-0.031638886844717926,0.0381203462077655,0.061293823682428944,0.06946945387779735
ADAM15,-0.019855902104024197,0.08193180884106799,0.07085443811880951,0.027288645240639297,0.02189917017645895,0.01770968707425618,0.08896503013062639,0.2749974558125148,0.17191537603640675,0.08142450453381674,-0.015971424825850376,0.07833726751420736,0.12109609840791237,0.13166500453472574,0.009536882758339872,-0.06269287552964242,-0.060073074965334455,0.02893391368414496,0.037218676174148195,0.09265284081053311,-0.022729337489412804,0.013388685433986698,0.1385912463809283,0.035371952661184036,0.14373940307106622,0.046922502276196876
WNT2,,0.004350957425978769,0.021274581053925375,,-0.1074310578526923,,-0.09239067177505361,-0.007072996999328034,-0.10046171531878222,,-0.04254991392747751,0.04912537187416662,,-0.09519249659186964,,0.011758724930381366,,,0.05456537887862824,0.04049566181985285,,0.03779610638898112,,-0.009961137586178092,0.07253058648197992,
CALCB,,0.003948376896202364,,-0.010422200212690136,0.03399177788483264,,0.10287276158204448,0.008197980691315778,-0.08423012470345015,,,0.06780897121525911,,,,,,,0.03405292668676146,-0.011427048208732415,,0.008479163993131464,,,0.05757241735317816,
OLFM2,0.062185865036063985,0.03621353663566098,0.00214026317389399,-0.01449016590819386,-0.20215192513673538,-0.01176940270951001,-0.09600214841939611,0.04155525237300723,-0.16319976903465402,0.01366369741995967,-0.025138434277679002,-0.016830902047865203,0.034355850069829864,0.00885450823132678,0.05103137938010585,-0.02646331995832867,0.004298102081468822,-0.023618035296486897,-0.07750717729549206,-0.03541310628725034,0.09148634976714211,0.013865929227132558,-0.001074866122489409,-0.05254488827315945,0.00013045529376550438,0.04756545687069127
MFAP2,0.02908522574589682,0.03341103702459774,0.13533444713823908,-0.03827172441094255,,0.01032060417291072,-0.024825305257055074,0.21116052300054475,0.13144889062895354,-0.04290591322754501,0.02128132366289379,0.09742723786389018,0.07986454393930312,0.04851951481965563,0.03254574942571231,-0.21830485786055273,-0.03385399849695785,0.010142993147751774,0.01636616765729977,0.03190435927079493,0.13771947001703022,-0.025684798822574732,,0.04644420215466353,0.11219250838931195,
HLA-C,-0.008455095756900424,0.06822648869470321,0.060376429909443474,0.009756491819646013,-0.07964025202061278,-0.037601150983969246,0.07519689886648682,0.15544195157228122,0.252973116546165,-0.13873419378783852,0.028203140287425075,0.34260435809466994,0.08922097511572286,0.2940009353749277,0.08173706314007802,-0.022829828148559727,0.09736662186147511,-0.02526770726512537,0.1696524213821815,0.09946019522871101,0.011343143714906901,0.019271993526626632,0.05837722807684113,0.042768543631998224,0.06580796418784113,0.10553250864063178
THBS1,-0.006558152016155858,-0.03246555168116563,0.0716767950356085,0.021587657685571887,0.0665215017878168,0.006448358597517554,0.16436632289209854,0.15927219098352036,0.10709186797600133,0.03282742998214752,-0.010039037861896308,0.09660411896598341,0.0793257568330503,0.048244217434471305,-0.028665875072320355,-0.036439512987796296,0.036059285629445686,0.03286079549824677,0.008554487246999504,0.07474603097673649,0.07637179117112448,-0.05344815102320379,0.03694882781866354,0.001359697582366492,0.2941634727737529,-0.03194228588931133
HSPA4,-0.03981084386650488,0.05706311686583053,0.01098448498373316,-0.018134542919344087,-0.04730230827718914,0.03833762557132133,0.04049404271207507,0.13067629473787193,0.017242078941467533,0.012880565886545854,-0.012469215801239735,0.03414611510810103,0.04118658135706738,0.05786123411596228,0.013769313140771358,-0.11712280140571063,0.005466868544050461,-0.029601887599517405,-0.1309493810010623,-0.09812121453012687,0.02355605826412708,0.04853209993479103,0.08465543094375083,0.01903765284625797,-0.07830342815157962,0.05967116856216425
LMAN1,0.041766165114679836,0.0402417566855822,0.056399526964451475,0.020604149450184735,0.2842477171282188,0.02262165199718707,0.17248855549721173,0.1930894699513415,0.2086679235621565,0.14893397018800483,0.017791561263799792,0.0038597505217817397,-0.1240024361857094,0.24143918277110943,0.017949229822056274,0.1656656020006129,0.10627261862953974,0.13914832037921876,0.16484938882584932,0.16290751680391394,0.04500400258940324,0.09382466289891488,0.04743116116509858,0.050915795097962596,0.20293614403567395,0.09431521514098966
LYPD3,,,0.027754447880706547,0.018121210549986524,0.03601264125524747,0.03622009633532196,-0.02811108064245486,0.032569048747045096,0.00623420388234545,-0.008665632303483896,-0.010053624553709508,0.023996930464554218,-0.036240196312217,,0.04403403414004643,-0.05055996109183466,0.050796232636940254,-0.07329334147466816,-0.018250816214692416,-0.042133810469428774,,0.022805234663671084,,0.023476978452344817,0.04288466165458464,
APOE,-0.144557647084715,0.057362839664696,-0.027827176303101647,0.10564373308868191,-0.16137575205866575,-0.014239831014808064,0.08457993620212663,0.23127561404504593,0.1526289052161096,-0.045104007846304146,0.03910640422962781,0.38697727912544416,0.13727800754911948,-0.24775497652064218,0.07169030265150943,0.027983747574540557,-0.03416174274508941,-0.06011811376203562,-0.13601531901819075,0.11655580051885048,0.02338070696231951,-0.09502757055459686,0.04586680238389103,0.07573345271528092,-0.1271658554495787,0.04420708982821105
SOSTDC1,-0.0016721318242397245,-0.055462431409160046,-0.013518875517964074,,,,-0.10574142523892283,-0.08079133913490756,-0.02503252182741639,-0.03237920790302794,-0.05715693849244726,-0.15869766298291896,,-0.1306491182441349,,,,,-0.0014613695589721007,-0.08555790584413304,,-0.06105286070557072,,0.004504396416671045,0.008389716301273846,-0.057577898469200035
ANXA1,0.06805037756644386,0.05470822426568951,0.16875649376211058,0.04855276046043524,-0.017203396563588907,-0.04640162300866544,0.08411301253997143,0.28027325006367193,0.285928395869161,-0.09444883887799271,0.07134246195454283,0.2949959220194343,-0.05545839481104667,0.2666144735083647,-0.049069555347825325,-0.0648800248643398,0.05663091801281484,0.08757644632093618,0.05057525880687266,0.008418905297115987,0.05692572834638217,-0.07221376216755317,0.11523475487020639,0.05310009540768315,0.11635136708374726,0.0714051820616428
WNT2B,0.029037577656387266,0.05547678531463389,-0.026109476223000427,0.0034694891227967472,0.007886687910501374,-0.010481711404192805,-0.05991898109240152,-0.04943448934021232,0.05593843782080688,0.017677900819187443,0.025443648337774284,-0.07369970950744467,-0.024418197221423583,0.009302840998871884,-0.02424688831675193,-0.127972975673182,-0.028344680896699385,-0.0016171295752923588,-0.04595132424072306,0.012737215003078398,-0.04638099917452308,-0.04967935151934682,-0.024288389661691126,0.0804107564936441,0.058411829020947256,0.05743060405894582
AMH,,0.08305944041878903,0.014047080333835315,0.027884122822747544,0.06314292847617545,0.018431283857356536,-0.05098181131601384,0.13348311793842355,0.0027520927900145987,0.060082502464555,-0.023952322569674042,,0.012738418904719996,0.09707984352111039,,,-0.028619744991545175,0.0031799586284814918,0.06432122079908935,0.017019283691971643,-0.01299483753798604,0.007030547710100909,,0.024488647771397257,0.028526274441827416,
GDF10,,0.08101033707586938,-0.019501876278521662,-0.006093899023741438,,,-0.042022055158459436,-0.05825221747304608,-0.06757109720232334,-0.03292651157264193,-0.03685346912244863,-0.024406235662384295,,-0.18278463525961655,0.003892685766232893,-0.06310711717614358,-0.0372553799459682,,0.005861427936114515,0.0011804819117968643,0.04004103691806871,-0.010451594577816364,0.07306605379630085,0.02984374775656284,0.01950889118506029,-0.015846626595814026
EFNB3,-0.021621195632014173,0.07694966405365278,0.060151612152855534,0.02630131471382373,-0.11388743980617334,0.04419187428122537,-0.08656630920697506,-0.22723997026821754,-0.18799990824997795,-0.04146895797438803,0.00917690187164309,-0.26952884470941413,0.0071595656278842365,-0.2272279720578863,0.03890608822613254,0.09855703243872659,0.08539725923767179,0.030257120513343422,-0.025599903937278613,0.009238856905238346,0.08533041872421082,0.03823160884165107,-0.09636248178359917,-0.047108435139609134,-0.10349440784837288,-0.06746958948767441
LTB,-0.011981532420641238,-0.06353526538547692,0.012398453784299362,0.03974719813381412,,-0.04260945829582582,-0.054854646897651196,-0.06288572996830227,-0.00856404959421372,-0.06169789998564947,0.04284338158856265,0.07365067024568733,0.015857674217474232,-0.051170884333706534,0.13644129683910058,0.0028767038264516966,-0.09425573419381926,0.0637224866463847,-0.026569652789862234,-0.010515538426683319,0.035359260567792046,0.0010832514793339574,,0.04920080495280062,0.04377909139047327,0.10080724442415788
ANGPT2,0.04798873491484714,0.023622148517942775,0.07360246944752506,0.02407673237749849,-0.08572798801400998,-0.0006619858821887684,0.019558354450201845,0.2537470656326013,0.2463049949867443,0.2026035042192718,-0.00016629171264786224,0.08138163941935793,0.07780774017689567,0.11867112084444545,-0.05320445121313046,-0.23580904142677436,-0.041829187669967675,0.029257098501284672,-0.04712727236528966,0.022433565754279922,0.17785331828935935,-0.08804138421131481,0.08166503982341536,-0.006873381089657544,-0.04703117625896497,0.1460195192943196
NRTN,,,,,,,,,,,,,,,,,,-0.06266713276101295,,,-0.02304110231181555,0.007091609790865016,,,,0.06972136182014618
ADAM17,-0.015775044293919124,0.06525135003459909,0.052064830626267794,0.017448122486607005,0.14108861304439202,-0.03264842624938572,0.15279073912011074,0.22752274709624673,0.09975170043660522,0.06935913326139564,0.06838296638886918,0.14587896157989166,0.10062552302988102,0.15765534261606662,0.09943620210816523,-0.08717575029557718,0.025378695117166228,0.0018227125831987681,0.17181014873728018,0.08367715874212152,0.1187976322402379,0.011326775308737361,0.0985640555997657,0.013418628253863394,0.16264352523225684,-0.1286017336007127
LRPAP1,0.039604057852863084,-0.013860931312317167,-0.0028101052788200064,0.029124190131353905,-0.10589137518757175,-0.05425346832791431,-0.03129594593038737,-0.21422893911969507,0.10845686085291895,-0.03761781964223372,-0.007174410416041068,-0.14245144083503888,0.07515056236909938,0.031246572155773145,0.09235264281186108,-0.023487929988574217,-0.0017813696048414721,0.01172063223744246,-0.11074199088252037,-0.00626502003840249,0.06836919651406675,0.020143668760447257,0.033035797314382075,0.04149283252551683,-0.13756864385389042,0.005415466948089381
NID1,0.048699979354547986,0.0807306752910337,0.11577469308896886,0.0025143082000269558,-0.035759577016562544,0.027223909335588155,-0.007004117966610278,0.24369443885145453,0.23392721900877939,0.15469158149568737,0.004104338152272363,0.07238011783662793,-0.032744250566378474,0.07935325602503383,-0.04406539351932903,-0.30658743090599555,-0.09711829252347294,0.05907277248147066,0.08464890978088888,0.19996603972186702,0.12757245319085841,-0.07564888870651502,0.021003885786507987,0.07698461145358516,0.0811160131888029,-0.0017382840945460774
