,MGH258,UKF243,UKF248,UKF251,UKF255,UKF259,UKF260,UKF266,UKF269,UKF275,UKF296,UKF304,UKF313,UKF334,ZH1007inf,ZH1007nec,ZH1019T1,ZH1019inf,ZH8811Abulk,ZH8811Bbulk,ZH8812bulk,ZH881T1,ZH881inf,ZH916T1,ZH916bulk,ZH916inf
HALLMARK_ADIPOGENESIS,-0.10436717067813575,-0.036577899106303796,0.12118573881172262,0.16292374829889053,0.0754705224359343,-0.01652009597115843,-0.023358385379560122,0.11129636493780448,0.251870947120321,-0.11553806774085351,0.0722110019224847,-0.08846422124756295,0.20186250196125427,0.035304064212653814,0.23015730984224322,-0.11275490373641196,0.18004900447301422,0.11367382310575416,-0.019224909762497966,0.022221593650930634,0.08811270490993008,0.07370372879936071,0.07257556576558005,0.09623843907440906,0.10577706428285498,0.05896390515206922
HALLMARK_ALLOGRAFT_REJECTION,0.12959551683727288,-0.10013664352136034,0.09960070315407947,0.15229653172952962,-0.10340256729575804,-0.04339177598344574,-0.006678567083317306,0.2577726101145697,0.3617281434633528,-0.1857062192251573,0.03200518824516157,0.31856996799719683,0.19895809205204742,0.14037588784358906,0.14573982533969723,-0.05340026049956634,0.11782061482863865,0.1429588197259666,-0.13892290597395768,-0.025583509164049324,0.014506962382483913,0.09563387356019587,-0.010436399532300824,0.1304003509317073,-0.01638361155785447,0.07686994143243742
HALLMARK_ANDROGEN_RESPONSE,-0.06074053375050665,0.017817389609137427,0.20135662647095975,0.10932695179405066,0.17271649432201328,0.10569829800242007,0.02654136925471477,0.18519499792143299,0.36760343980664806,-0.0634341442133446,-0.01962216640288943,0.20388716431235587,0.28759751714557974,0.16103653354119615,0.24769325290758415,-0.04385975540934182,0.16089435236370478,0.131167597823877,-0.011156391629469027,0.07181625579066606,0.07819616942583912,0.10091574662759886,-0.010479810027448461,0.1736160656320849,0.08585952980019179,0.12056103909734
HALLMARK_ANGIOGENESIS,0.10948627353163426,0.05351244103755739,0.15324982299420295,0.0773212896447426,-0.09530998929078227,0.1393250120975319,0.01861920696421973,0.2293089584217753,0.38055703235994826,0.17161199940199512,0.11163775310336359,0.32004483194237826,-0.03149168207453514,0.2787751521991114,0.20922772176121282,0.24869873725739347,-0.20397588135865466,-0.046102025235185466,0.004824286805871225,0.041999244011408275,0.012011020995939654,-0.010275058306174296,0.03291621700473681,0.03850867672150847,0.06955267684782772,0.1435130637102624
HALLMARK_APICAL_JUNCTION,-0.148902342249819,0.02038755922614986,0.2172972550443639,0.12331831202097482,0.04757777310722238,0.015549282838541175,0.0240275605646799,0.24194863714812054,0.37231536625237216,0.09297344168042716,0.04179550877953502,-0.0008006841842572464,0.18929055125425984,0.25366870584985546,0.27311719948674423,-0.11309608154686955,0.19340572607449918,0.16005671410594255,0.040292233461548345,0.07463727324173973,0.1187363957555049,0.01908654505870815,0.058312611020354614,0.15597568488399502,0.08966411454320265,0.07728805101428558
HALLMARK_APICAL_SURFACE,-0.1187437904544381,-0.17589956519396074,0.037388331405266394,-0.0698130335415272,-0.024092123891159053,-0.08959965837681448,-0.0028287421425590574,-0.0898774546251491,-0.1983688056108497,-0.2060125684749196,-0.04818178599443192,-0.1562778871510332,0.21882751574320633,0.19421794109244284,0.0883659858850281,-0.2718303038264808,0.0527175083369955,0.15992100459632325,0.021654107044903524,0.008724354775829477,0.07743082162221546,-0.025893443150769448,0.047570210538830385,0.124059878652447,-0.03859937202098942,0.09517284066214222
HALLMARK_APOPTOSIS,-0.029207285782874806,0.04761613292310751,0.17517097346501495,0.011270897817870093,0.1879671293722031,0.03130622835922334,0.07792198360614787,0.02839202735356971,0.12135950485338856,0.13023977503099157,0.05870488523039308,0.08554777414268902,-0.025615795232046434,-0.06761974740240424,0.06620380874710002,0.05520397693868602,0.008469050478946668,0.008205589615142032,0.25858928279302373,0.13862199883789939,0.08109252246230149,0.054667166268327946,0.02947559093174724,0.04156772122117951,0.012980404520585865,-0.10516090730057658
HALLMARK_BILE_ACID_METABOLISM,-0.15870488913575487,-0.05671057934062104,-0.07331274879623328,-0.00781497711497698,-0.019748017169042956,-0.07440333883122563,0.01637016697752646,0.16844027118269972,0.3904600968271424,-0.05119925559503559,-0.014186474787431774,0.1100685428460215,0.09867354137948144,0.10916439227128666,0.10136307669277089,-0.18724847294425961,0.059715160078971215,0.1262547381614364,-0.07619694595521487,-0.06392120672322119,0.15530519038444784,0.03052343662954949,0.04061368484021705,0.023213975405034035,0.10852204597236967,0.07991820668285354
HALLMARK_CHOLESTEROL_HOMEOSTASIS,-0.0706584149579854,-0.026031087963307914,-0.06254753755992878,0.1508415993304307,0.04281917974125752,-0.026848244646383145,-0.0660118952736457,0.1846423061068324,0.2626556733070672,0.21015344448486067,0.030415312689961376,0.24105354046358834,0.18713868516758667,0.25962870873105826,0.07555182427143677,-0.026229138323977476,0.1525886888452589,0.1019352392673259,-0.01116341143760036,-0.001983074829158748,0.05320150875222488,-0.015908474838825137,0.03938427625221369,0.08397975514013313,0.0892116613113443,0.20849545480215606
HALLMARK_COAGULATION,0.15731556510857908,0.03783551909633091,0.22125029543112862,0.15698501115695926,0.040279746364887105,-0.061213624312866484,0.07717849261676189,0.28949408934326826,0.4135550443329501,-0.05973586377593642,0.11049740328241173,0.3620362080891807,0.18418173304278476,0.17918449824050495,0.2997986429486235,-0.12508548917626705,0.25373758464351004,0.18121947834418883,-0.0022498510466558894,0.07110922105539505,0.13721513603722274,0.08742308084502809,0.08526063509532376,0.15514021161802968,0.1387419323309166,0.16769486865647745
HALLMARK_COMPLEMENT,0.13451331813209363,-0.04286098464600297,0.10256993691875627,0.07617819678309476,0.07281783074070315,-0.010632626014047191,0.07036343134639628,0.1151900316888784,0.3323150713874417,0.12587545589239058,-0.00102711528883865,0.22369428128436458,0.19945225978621237,0.0478176324935396,0.13086888716097597,0.011221167729668344,0.1782880504083554,0.17469410470863203,0.07372472584530756,0.10451352969153974,0.14663569008362795,0.1283465643318929,-0.006749243658681039,0.08965371063825835,0.0878720182721631,0.0820177636032971
HALLMARK_DNA_REPAIR,-0.12539114118585495,-0.02353950705442057,0.08655816457678354,0.16001058164344903,0.12920728667673342,0.11444487497367184,-0.02239223762667192,0.1706490120780871,0.3357850181239833,-0.06354248386870637,0.024025015884750207,-0.13437705007814416,0.24191075115406635,0.2272530852173111,0.12354656880828419,-0.21231461360647555,0.16056856464428418,0.16975168282217315,0.006026760491909212,0.03237490737592964,0.12479975166201855,0.07316208763350343,0.06911272409500288,0.11664258028813795,0.14096963426727346,0.10313064202365756
HALLMARK_E2F_TARGETS,-0.08864615192414042,-0.14108311309444085,0.009535581697030365,0.139068411978534,-0.06474861104372949,-0.054442866902498825,-0.05270982420875439,0.24684810883619335,0.3751890368099403,-0.0584497478139052,0.015256011331304055,-0.22220358857220074,0.19155524686432213,0.21654317246174806,-0.02326589646161367,-0.16294850604502634,0.08700702219402781,0.0866432205212128,-0.1035770652708152,-0.03051491933955497,0.06998038690178354,-0.07041793424901178,-0.005700714183391267,0.03875420835118414,0.05767341408484239,0.016352580924281074
HALLMARK_EPITHELIAL_MESENCHYMAL_TRANSITION,-0.08473202234913649,0.18307090160078007,0.3392017745672135,0.043776025454581806,0.25551942591100774,0.2309230064479253,0.0675414214797285,0.2859740579664835,0.3565666270052996,0.25300939779106685,0.1056645867735926,0.271476693040136,-0.033153707720412276,0.3197416014171116,0.3302877586488603,0.17778361917180052,0.21904599967367858,0.15102369756970138,0.2939484277347527,0.2788222323836367,0.0972799978577195,0.07896350497173653,0.05635391841146165,0.11625813828956766,0.16504335298925224,0.13646030669955037
HALLMARK_ESTROGEN_RESPONSE_EARLY,-0.006896523461820221,0.040044486035444714,0.13223340904765984,0.0608870309860153,-0.03980372168561375,-0.04184562965877807,-0.027232209259882383,0.006077317129051737,0.2582893520564631,0.05205930943047301,0.05644655456911428,-0.21293489853081374,-0.10607849299403611,-0.138937913817782,0.22875431516835865,0.04533899065657698,0.03092508015267088,0.08483422290836172,0.1510315696593155,0.10965101129796212,0.10828846596285609,0.039766827914633596,0.04087968172691489,0.10596908761133461,0.12025924062486665,-0.031992864606475394
HALLMARK_ESTROGEN_RESPONSE_LATE,0.03699572322476454,-0.10511082998339773,0.04949730374305433,-0.031020422766083987,0.020395785069429725,-0.03555243446234818,-0.031817820849399166,0.059575843994007324,-0.18833695553251795,-0.1189445420447922,-0.04287869588707737,0.052691060132173104,0.2321216686916778,0.21793799651781684,-0.03811753649999873,-0.20600422713154418,0.005145237997050316,0.04169849358170269,-0.0806605004479925,-0.03149379865775178,0.09353191767448722,0.03307412899240997,0.04065477109072364,0.04559046727113407,0.03618001049968306,-0.010313580048286398
HALLMARK_FATTY_ACID_METABOLISM,0.11379427459121717,0.03513729702972961,0.17130288085120593,0.02270561880618813,0.11775045396698003,0.05414109044723344,-0.05078299516043838,-0.016710593938706816,0.25412836849744863,0.16427022131950822,-0.01168695122591284,0.033115792845216145,-0.09684188195196324,-0.07810818540231476,0.12856195197067838,0.07537566999476908,0.037595705580823355,0.07404308676785724,0.28944292253230397,0.1457971844057549,0.11737885428894687,0.01653962095914662,0.006748241405039528,0.08119262062218695,0.06807992757300554,0.09602742540400612
HALLMARK_G2M_CHECKPOINT,-0.11949490843047668,0.052638464204980764,0.03000494919889656,0.14404591554508936,0.05719010026023723,0.05553641146015205,0.02305852416911865,0.2529484500491827,0.3826737370976854,0.010838352024214671,0.042217880427432915,0.07109800108130564,0.19342020289360057,0.31543730066011455,0.06770863428743136,-0.11598874977407887,0.10393333547236105,0.10237169153569589,-0.041763419323978,0.016632323425254125,0.10780821192948341,-0.013646804124724765,0.04839601220027697,0.05480427334142402,0.08861330277583479,0.10574202968107024
HALLMARK_GLYCOLYSIS,-0.14351763560385902,0.050580845090325934,0.02906384580932405,0.07153582149301932,0.11275199299015541,0.08355406486545322,0.0074616104360956505,0.0011471751124199916,0.26686892852147925,0.07677132796550391,-0.02071371088043111,-0.25063744778229685,0.05160718828531239,0.1278373740311206,0.1277321821858475,-0.023506451725318064,-0.0580150373582755,-0.01898375692878869,0.12689625907168645,0.08232467927094039,0.09962173876840269,0.0249900919867964,0.01598002429217484,0.09358772167232132,0.036806839801001086,0.09416624600536569
HALLMARK_HEDGEHOG_SIGNALING,0.0010921873129150453,-0.03631403744300377,-0.0050017241555833526,0.10710427512457554,0.039486970201607005,0.029447551920198753,-0.04743796285509356,-0.19720785649108963,-0.31130126562059324,-0.04443058502752813,-0.08809787379933394,-0.29938690268689594,-0.02113591491367316,-0.15415290889687386,0.1674269562208608,0.14465396802505595,0.0863295390994365,0.04604348418726286,0.07300854836289028,0.053009776406960966,0.07138221011326683,-0.035233691907271006,0.034376697321868814,0.09180178222510596,-0.08292669834045398,-0.05998531665975782
HALLMARK_HEME_METABOLISM,-0.017079206299763654,-0.06253815199029603,0.14475670540603816,0.1429931263029134,0.12421518851621333,0.020751059652876106,-0.03183379026260764,0.04069648745494879,0.31931951690346017,-0.007569038299946721,0.043975790844777,-0.07926217169158638,0.16080909968200008,0.18722088449054264,0.24386042844749847,-0.06220427160196402,0.11936915696415827,0.12064958754213365,-0.018918121928775393,0.05834619640967175,0.1060501870401452,0.11503911757316831,0.10398886961649734,0.10362189375069389,0.06223009219781237,-0.029798159723045285
HALLMARK_HYPOXIA,-0.17419003447489856,0.2477355806127155,-0.007592426295577649,-0.054412778004100694,0.14949537075218625,0.16384911319294487,0.03567593569792532,-0.009308258189659706,-0.23180809473685557,0.23563920354631437,-0.08153758745957052,-0.038494796014731464,-0.2018968683400715,0.22366595800120714,0.15375184036155443,0.3323980276006155,-0.15872256822054673,-0.012955260834216905,0.34499131835518576,0.22283420814032584,0.08295101669272627,0.061316930413855456,0.0788428975889642,0.1150849403343071,0.15180402497956683,-0.055843137940430915
HALLMARK_IL2_STAT5_SIGNALING,0.07972241792291827,0.07673824540456148,0.22434275787960709,0.08283685831562708,0.06088462719786916,0.13029031790000478,-0.007700613797206966,0.11888553279936073,0.3700738238177401,0.08040134946726356,-0.025460497836869354,0.12101615579086901,-0.02475232754153173,0.11900168339431787,0.23303727349123957,0.049057436503790484,0.1746174127979583,0.14151295320702695,0.04695326689950641,0.0520675943507531,0.14822205117464787,0.02231392835012509,0.12154701297837707,0.15417297601020608,0.12042119179828022,0.1564747534260923
HALLMARK_IL6_JAK_STAT3_SIGNALING,-0.012372751488063107,0.14764526865522878,0.27070647776674583,0.125587128116624,0.11271992801786226,-0.005127985557977773,0.012293342219961746,0.21328091743640562,0.3525479131660435,0.07003136476767392,0.1040746388962182,0.2631388574570113,0.18457394771069507,0.20326456048295066,0.2620974200292614,0.15508031528495908,0.1717053511609662,0.07263154822116416,-0.09321543075528693,-0.038221963148757705,0.053747791707727394,-0.010250414632923614,-0.02668649736248836,0.0954937672305806,0.06697857170199219,0.10211755356185168
HALLMARK_INFLAMMATORY_RESPONSE,0.016304848828851252,0.060843563440962325,0.2002366968728422,0.04404456678637409,0.07673606547126631,0.05582998688718265,0.020472145898894525,-0.1543227655489625,0.2092128926428383,0.24294824550882693,0.029054361487459577,-0.12076660908552608,-0.09014116554438602,0.06306788610109511,-0.02401672408449643,0.03656906383030486,0.14377371998239305,0.11514055997539253,0.19865980794765734,0.16800636489861442,0.10244832576831948,0.029911827006896808,0.08824311442703141,0.033864494758754915,0.15779056509975925,0.01747138121500155
HALLMARK_INTERFERON_ALPHA_RESPONSE,-0.13972817128436882,-0.12687428469842738,0.09104798953889,0.07047690987585863,-0.04962423630213627,-0.03013542218133366,-0.0013315688120243254,0.2503394621875455,0.4085082270738517,-0.19785475591503643,0.05444052072894833,0.3296563859231396,0.2615631322386148,0.22424077439061946,0.21417106980111644,-0.22704787177580066,0.15481621441047644,0.18859732765776513,-0.11432198999442254,-0.05823741609230727,0.01707285768159503,0.11153493595787427,-0.024091336798464095,0.08270443282325125,-0.0013769205353641983,0.1405295993170759
HALLMARK_INTERFERON_GAMMA_RESPONSE,-0.17152002235794475,0.09893740619290206,0.16794752832759755,0.10134779273895732,0.15225488438049956,0.02630517761740137,0.029079947551206263,0.11316919759565923,0.3535530280534803,-0.01474529112958064,0.04989411271812248,0.2932262419698411,0.10343652713681421,0.24034920010588998,0.28793485478965025,0.03866476866889365,0.19303109099620355,0.10117520688506812,0.09518223530391322,0.13280299379301497,0.06657211111204722,0.08551441326478779,0.020840216598059538,0.07153247353161447,0.1347486231117403,-0.08381662076606419
HALLMARK_KRAS_SIGNALING_DN,-0.0011563854645222972,-0.11060598317272896,-0.14021395230712913,0.2012314786914318,0.05003393621418165,-0.09415435059008159,-0.03620581264817902,-0.09228417924125291,-0.07939822597079761,-0.011712565092347412,-0.033507005279693726,-0.2428457046600652,0.10600494172228843,0.062272513445489876,0.12594211007717832,-0.14532091138267292,0.07527029326630019,0.09831096854850588,0.04300056477407059,0.010400806860402102,0.11356015946062348,0.07161110453775434,0.09862873105856391,0.06138308205577866,0.02113461689829474,0.08415901806899258
HALLMARK_KRAS_SIGNALING_UP,0.0607672072942593,-0.04793321861314645,0.21964209404733978,0.15311824507416885,0.023637507928826216,0.07511980905156303,0.017715233713615698,-0.19783599656863468,-0.07154547038347556,-0.19719302293987645,-0.04083006738783436,-0.21118626023190462,0.22840440556728703,-0.14613451472013797,0.25885036002391115,0.1550666061884384,0.11190634057790755,0.15512205380613503,-0.09253263812599091,-0.011705266340367582,0.03816005105134876,0.03342373309285018,0.03406486731465674,0.13232713968474694,-0.03902196029281655,0.05175693399121626
HALLMARK_MITOTIC_SPINDLE,0.017579217738337212,-0.08098386666605133,0.1737559088780568,0.15664837675364826,0.053351340368784354,0.013127748245133797,-0.026063488260625677,0.16587572586572227,0.3597473452971914,0.0500133013222983,0.029136820608292365,-0.12219315445778044,0.24048609555197661,0.17325435945354148,0.3138243321737296,0.06166443055521539,0.09994748727134765,0.14092166339489556,0.012131145363435859,0.04918395966140507,0.15737845083148072,0.042823130054804724,0.1043932266960864,0.1411643452633578,0.09277793080573975,0.14101080856216006
HALLMARK_MTORC1_SIGNALING,-0.1029897146708496,0.08201384935295665,0.07034508081519883,0.07779908732624234,0.13344183807684787,0.1433608564652389,0.034964262075370484,0.1421158770105902,0.2736723960573944,0.271225460621271,0.0072315035043941595,-0.16021286448388752,0.013104606322638553,0.24406339558001328,0.15289490151774626,0.22736264352101498,-0.058718199085500966,0.0228759009343978,0.24416150998822125,0.14518646141561098,0.10915141711867246,-0.003152218983339194,0.07540206245693286,0.12180753638577649,0.09779917324761238,0.019899844787080113
HALLMARK_MYC_TARGETS_V1,-0.09327384901252014,-0.01801372394823455,0.05254260994938328,0.13975604451112789,-0.007849977948394921,0.14769998848960525,-0.014160898990409456,0.24755479782865228,0.35617533001185325,-0.08974506927905213,0.07500507579526258,-0.0896674295997682,0.26107430234730644,0.29818040466865875,0.08479159068168267,-0.22047409474684077,0.13551707675864444,0.16692315803312818,-0.05709430196979677,0.008207088931607123,0.08168142935034675,0.00948200306798089,0.08654906596986002,0.12666825908990753,0.10462362830771307,0.09636651178098994
HALLMARK_MYC_TARGETS_V2,-0.1207060510639647,0.008848390196190277,0.04642429792902681,-0.03944066877864865,-0.06471349671105794,0.006115573971712426,-0.005388701594698341,0.16406448390463768,0.12435920968872087,-0.16206632281361405,0.10286585524001211,-0.05685108307430095,0.012995793231534278,0.1679441751368709,-0.017684033280376786,0.05583781324701699,0.13816489713317376,0.051343240614473755,-0.008074218233860722,-0.015344170333362715,0.033916417252981085,-0.04046605397171308,-0.0005852115971212833,0.06839346639978022,0.12143808238496293,-0.06419125356902791
HALLMARK_MYOGENESIS,-0.027956444085871453,-0.07374501234096775,0.19642978792325066,0.07780419314795667,0.029139777379748294,-0.016129143991409273,0.010490116732558114,-0.014492131149020992,-0.07875096033068374,-0.10203783823780654,0.061770726519763126,-0.09152308963328162,0.15200661902671783,-0.0843396160229731,0.30177095217705413,-0.11511620486961,0.16836861055787108,0.11714323262945685,-0.02976967456774789,0.023839894725104217,0.08344859331745408,0.06820309610801162,0.06548996455504899,0.10819195678926824,0.04074110987912563,0.07596849153991093
HALLMARK_NOTCH_SIGNALING,-0.136744163129402,-0.030821594209125135,0.11095032552417933,0.057205106094773944,-0.028185361536453853,-0.059961022452988504,-0.010975542966858745,0.14405341183620785,0.3708960895771834,-0.09700056806471116,0.045889783651410554,-0.10271313413801224,0.2393297625890899,0.17636125703572283,0.2191700510288729,-0.14401221617932453,0.13276031616397746,0.1163052985934673,-0.060574095737836176,-0.035464231754159914,0.1153619228728329,0.02861156522348935,-0.03604732501756466,0.13449934195369273,0.11970368300958051,0.04001268637912326
HALLMARK_OXIDATIVE_PHOSPHORYLATION,-0.1535363969692311,-0.11547801277954856,-0.06092165270157612,0.1254883060112998,-0.006229302800377694,0.09961534176010782,-0.04286879720393334,-0.004841274558313406,-0.11317605752183515,-0.14560724025239824,-0.03655779749473441,-0.259673034683809,0.2575500893100517,0.025633761124112097,0.040853356813649246,-0.22976622367540742,0.14751646715672886,0.16411119510610236,-0.04161193013692059,-0.008399731278070631,0.09152232116341372,0.07333023128867826,0.06590799040669375,0.10943982057834054,0.013285540002279429,0.1069916206928046
HALLMARK_P53_PATHWAY,0.013453194751578924,0.057111618259162285,0.14155287098730798,0.10873012727579366,0.1495934162242969,0.13533137444998355,-0.045570891922989035,0.17556249279866207,0.3336579270776789,-0.014602481545760227,0.02352829873350576,0.09231292216546153,0.1362338137183204,0.1745276048601289,0.06542530500083535,-0.07757207107898291,0.06324334063730139,0.06503466567088033,0.08925696478396951,0.08459144961820052,0.0819286270494294,0.10300941562817466,0.029174945583270797,0.13281819904595407,0.14397986597072907,-0.04602824553358237
HALLMARK_PANCREAS_BETA_CELLS,-0.05068328054227721,-0.12588074584360348,0.055884420943694675,0.14352075956157803,-0.020587738202336447,-0.009127013228342038,-0.007932273315950283,-0.14921811709242155,-0.20375585214626654,-0.1647745855978213,-0.03291672297206028,-0.28913513426752074,0.30600188801695233,-0.08422213216233097,0.11001717229531097,-0.13185258261466723,0.16807360541481164,0.13876723378618516,-0.09491921168033707,-0.042339232241234745,0.12541748942729158,-0.010712828146148353,-0.029919644634094546,0.0912674612594652,-0.05106230233131791,-0.04466428123749285
HALLMARK_PEROXISOME,0.011188188923252048,0.017012217218219574,0.032807546154011415,0.10694937296778502,-0.0551713718138314,-0.0587344604478119,-0.05147215180559583,0.07789153943083774,0.1328140929294345,-0.14596223316947432,0.06390976929704481,0.06090164435768497,0.050299539256033594,0.028605290101454947,0.12894988821724737,-0.11898673513382604,0.07541480217852845,0.10020054238925988,-0.03468872855243178,0.021095607422963018,0.04456579095245951,0.01238126841144707,-0.028273993345096952,0.11931890576897916,0.05556236464586288,0.027596887864951684
HALLMARK_PI3K_AKT_MTOR_SIGNALING,-0.15275082712984625,-0.11186738121480432,0.09920709560187588,0.116669803787689,0.07304450394935652,0.03273245334913377,0.01443469489612921,0.011614369494359287,0.09266357064721019,0.04027181007042897,-0.04707521471722662,-0.24463524999851485,0.2332375897136304,-0.020749084421777766,0.23127786964275435,-0.037311023308241535,0.14872450333217171,0.1315357863660737,-0.011645134626777402,-0.008856307835221061,0.08108537895155987,0.0514181721336755,0.03682691233318553,0.14340213653732425,0.03198602155378107,0.04546584543322265
HALLMARK_PROTEIN_SECRETION,-0.11359998101143859,-0.05952283691792568,0.19541944411636122,0.1793462969508985,0.15912475847758722,0.04940141684226609,0.00024163356262097435,-0.004636057719388202,0.24347110258646157,0.04984487920678193,0.02456814187913292,-0.22957077571806425,0.27280311514329636,0.14247754767541482,0.2573756842589896,-0.07844345727162773,0.13335606137587752,0.10273077233489718,0.02085089909265505,0.07465603247631365,0.11752663953751957,0.07411317325995351,0.03326764525398156,0.10896439511429881,0.031566216756321,0.02650078845322117
HALLMARK_REACTIVE_OXYGEN_SPECIES_PATHWAY,0.18262082733316343,0.07600648113974848,0.1067697552693594,0.08681398453627902,0.06663863252492826,0.16960379341990064,0.012862272113521814,0.16468554553593828,-0.10881010414125794,-0.22135428362530937,0.004686148267341705,0.33980788529754674,0.22901812465202898,-0.03815836893736157,0.08203253220022762,0.11295148687557308,0.048446671248789985,0.05384286570548368,-0.014534156826064017,0.05048611406598084,0.01125100549377383,0.11381496223932518,0.06800517233318022,0.15447762806440166,0.04419643914119414,0.20551004226746078
HALLMARK_SPERMATOGENESIS,-0.0819115882841903,-0.08100281649723773,0.04719047294651267,0.07304026504739929,-0.018524005988193367,0.008081205277579226,-0.06820881318799103,-0.011205395583260556,0.07671069831567237,-0.13245073506308627,-0.05681347442349794,-0.28688577747118227,0.25304222781329927,-0.12819190889850296,0.06123696900718957,-0.19265879859899673,0.05150369049636,0.10282208036557225,-0.0682033975438228,-0.027994347107987094,0.074939093021212,-0.004628769875172483,0.011067604118615354,0.09383842185140397,-0.0582478228066049,0.12758339412506953
HALLMARK_TGF_BETA_SIGNALING,-0.09933255139354999,-0.10307311383505183,0.217799234818291,0.08713176035900477,-0.00792435385703643,0.02515962839183569,0.0031182800643074857,0.1921085009412253,0.36132859782062243,-0.1094232496196889,-0.023618684956743914,0.03728779885215694,0.23753612625721038,0.2073869062993129,0.25513924472537763,-0.21976700132650132,0.21990521027381188,0.19071635512847854,-0.10268215544519328,0.053059266260131924,0.08954584571721494,0.052824262161325436,0.029662268358472764,0.1436600393174622,0.11967613819653117,0.05127344734126968
HALLMARK_TNFA_SIGNALING_VIA_NFKB,0.16285634927608067,0.15217454062995878,0.22408678212835345,0.15546029888075294,0.109228339644726,0.12721853735396602,0.04989446396337158,0.06447826727194915,-0.3357321110567211,0.09181967187980644,0.01007812105799677,0.14794934695396847,0.09615558098681991,0.1861821387310854,0.16313018153499093,0.19037862823405738,0.042045423744415375,-0.048159882415570746,0.1926162644927399,0.11609250329871061,-0.0219792463101694,0.015539859636675236,0.07375365650761995,0.05168849953889099,0.14243273369628234,-0.03444798021778713
HALLMARK_UNFOLDED_PROTEIN_RESPONSE,-0.09962533124116375,0.09532975840093727,0.22872408879807044,0.13597731744661037,0.14496876646097206,0.15057771387707597,0.016116257847694427,0.22447773593832673,0.31095565942219133,0.12560721451306212,0.01761759225822413,-0.18014361834897885,0.23442188310851603,0.2713346160911144,0.20900877500581602,-0.15857162569389174,0.18600507310543707,0.11835247521568504,0.059153687888715806,0.05716596779413201,0.10122855442145456,0.07854783626385384,0.05948986552622734,0.1551568001707119,0.11010010675379996,0.1314997439148472
HALLMARK_UV_RESPONSE_DN,-0.0765019774914772,-0.04560159405284573,0.21620020541612908,0.04413994870228081,0.12988184329764818,-0.07619729076468656,-0.041800083621712086,-0.12629943288232312,-0.0807061450445845,-0.03632340753477734,0.05331716774676826,-0.23716834987914936,-0.005468699645828723,-0.11687109745124649,0.3334074883868034,-0.040407659717442375,0.08178929604380628,0.11847562979717599,0.008133473414954847,0.07099318417598985,0.08542479715262584,0.09727258355668808,0.004136688152620993,0.08828248539791304,0.09355721166505267,-0.030569459128856558
HALLMARK_UV_RESPONSE_UP,-0.04662789488024584,-0.03379315808014116,0.06955349104846086,0.10480279946141638,0.14115365443942549,0.0662795465927656,-0.07399342142176062,-0.022349969822527085,-0.2545239157274144,-0.13006308632801236,-0.041031130785992215,-0.24682547786228454,0.1650191686410808,-0.00952317506659203,0.20140451513971205,0.07105448459329779,0.13909218835998138,0.12522789286151562,0.14619106990051925,0.09066019669007026,0.08094518473863341,0.05260834984451264,0.0981927876172789,0.10103897599120783,0.013168780097190068,0.06394242193574794
HALLMARK_WNT_BETA_CATENIN_SIGNALING,-0.10252463904459556,-0.06270640751213719,0.09937600029850996,0.050411205571128874,0.0982331874532084,-0.04671651346204428,-0.04647479959317773,0.1930403903102633,0.3820731033310302,0.12113068605369201,0.052878369096800694,-0.11326423417592636,-0.05946499255632071,0.3268026986359045,-0.015973191126966473,0.015790268600144545,0.12590581789129882,0.023796074676993587,0.008591271885940518,0.01846638840677861,0.04538353435269891,-0.0473245437678983,0.06294015750550193,0.09511337696310132,0.01655385067537338,0.15030245576911463
HALLMARK_XENOBIOTIC_METABOLISM,-0.08241434497303551,-0.05900610704346825,0.042087434103582975,0.06695418861328839,0.1507352352114893,0.06680384455534318,-0.027899257932126248,0.0843093027766872,0.19819247447087762,0.13290020136835773,-0.04716870163032772,0.2134357418231596,0.19752986238403805,0.028664298634521777,0.11394955496831827,-0.12450378093963496,0.07373364631098696,0.08653446961550863,0.13052836932666897,0.08219826454961372,0.13444819650761192,0.10022778752948602,0.04226419982633388,0.054725459492359275,0.11002991756902254,0.10170579144576458
