,MGH258,UKF243,UKF248,UKF251,UKF255,UKF259,UKF260,UKF266,UKF269,UKF275,UKF296,UKF304,UKF313,UKF334,ZH1007inf,ZH1007nec,ZH1019T1,ZH1019inf,ZH8811Abulk,ZH8811Bbulk,ZH8812bulk,ZH881T1,ZH881inf,ZH916T1,ZH916bulk,ZH916inf
HALLMARK_ADIPOGENESIS,0.16296356508217363,0.13535661457613915,0.22813586605485073,0.03767011093343875,0.21902548633136304,0.023357758456961936,0.148286405618617,0.11990080919596723,0.2339808051336638,0.05129368835600996,0.08853012311396509,0.04836598111311888,0.20881492937282412,0.09321979737867087,0.2308154813539683,0.22964972255741803,0.025246130123062555,0.20492384541686284,0.27748639353337035,0.23725998206952795,0.16132276227460812,0.08394713799454523,0.014694699670931904,0.3323957299190336,0.19292541000742067,0.014526029025107199
HALLMARK_ALLOGRAFT_REJECTION,-0.13016700717494478,0.10497666427745002,0.04652354037036993,0.054730812166545954,0.05466447044884578,-0.06302388857511512,0.022824447914199103,0.2841892612488501,0.29425608697492567,0.03446224317346212,-0.007581510989863751,0.06240982245416352,0.19853808055217917,0.13175548491488373,0.20979043832460081,-0.0010001815422205503,-0.015954153534195062,0.16167818169247888,0.18220180162748467,0.18689916781615518,0.12297265611365849,0.03458245581651496,0.04311486339514223,0.20260863695517822,-0.04399459125358056,0.034199602720336404
HALLMARK_ANDROGEN_RESPONSE,0.19441088115184643,0.14650734968479942,0.24938406999981072,0.02512128438643775,0.16793770701222455,0.03455694632420734,0.04065011999611584,0.2588295443971726,0.29758242858811434,0.1097247256025894,0.06286602763088354,0.05732108385351784,0.2740444519686751,0.1545415715335216,0.22029220618264983,0.1218020653328829,0.040478487062722314,0.22323985155026604,0.3340237750162482,0.23316469576885857,0.05992095548278768,0.10048768597381388,0.02588912403045995,0.24984299433909932,0.17105275652883112,0.042548602390427084
HALLMARK_ANGIOGENESIS,-0.10762750913647967,0.02632133531138081,0.05360563475569762,-0.030642534080917865,0.06545740719995471,0.08047650365464389,-0.02247918075406487,0.3402556859351407,0.3018451765587141,0.18831980148958868,0.05526548997672752,-0.014396444840412935,0.027611384152399943,0.2052487168487692,0.1832192525996063,0.08113400869629768,-0.0698945250240197,-0.029161061067915356,0.12581586793214466,-0.04628141981194856,0.0791782884394329,-0.002468227512486368,-0.01858398335903951,-0.159465945412859,0.21656826842063437,0.014794054657776034
HALLMARK_APICAL_JUNCTION,0.23260005071024153,0.1830742744541946,0.2801203282118739,0.09364717340793303,0.21860959082880776,0.07182076891243207,0.1387958431567297,0.37662057814422,0.3175152349747084,0.2455587076131257,0.07017119411505063,0.13274488305277532,0.29669783603332694,0.20517966389303144,0.24856815546968195,0.23407503228584015,0.0783488513148831,0.26318575402977956,0.3189923602236011,0.26939481318874414,0.18882616793828358,0.11909463151098185,0.05635933999773834,0.32478673525372687,0.24236850346466274,0.033064416078253486
HALLMARK_APICAL_SURFACE,0.24198564786308024,0.09490640522210807,0.2305981036854412,-0.023059954066215495,0.11707417627858546,0.04391319514571144,0.10988584033919017,-0.15071796585205274,-0.14381822500376373,-0.019813360015537643,0.05910690061745131,0.030805688044815125,0.2523504897318251,0.09910061678323295,0.18261122468745605,0.14833454419639125,0.04772138716671751,0.17625873214197463,0.27042496266707117,0.24027206615515595,0.18103245311836194,0.04810825130875164,0.04630497810838393,0.21008133411366084,0.06855287135398637,0.048436472996076056
HALLMARK_APOPTOSIS,0.05855026983250335,0.12399533670075832,0.08020731171965723,0.043552770321355065,-0.08460971699842844,0.08110813038214677,-0.0856360114105078,-0.00022869359759486438,0.1246412801094367,0.1555456773353601,-0.022892347881696487,0.12872377443287283,-0.07689136326154966,-0.05794664469092263,0.06539880793191775,0.055975442996016166,-0.01572608719265695,0.1384552414567269,0.019023653418114912,0.02748693939105147,0.10786509436836507,0.05207504847142972,0.0019398613724476536,0.11098418131526937,0.014603230762219806,-0.01299801860337905
HALLMARK_BILE_ACID_METABOLISM,0.17028166106004364,0.0813965589365776,0.0827820141488578,0.008195575018399327,0.13497696920790167,0.025358517267601497,0.11776353263572001,0.24822010479564746,0.28624967856979894,0.170255156211429,0.04210474489860544,-0.027770939598041514,0.0628415357672223,0.11432629628068658,0.22499374533864827,0.10676799588199408,0.042211254915199975,0.1267954617756045,0.2820408666880611,0.2083823029328138,0.0362952799356996,0.012856603278351909,0.02141046219864189,0.27810080893336453,0.20214890467630725,0.16193083957621843
HALLMARK_CHOLESTEROL_HOMEOSTASIS,0.2354595211629236,0.11973324580012469,0.12967394304316252,0.06296968079982934,0.10274453691256688,0.00842999921562741,0.13825471631038508,0.28560007624357686,0.21892071063724283,0.21181754133238853,0.03074882324784208,0.04725965485250121,0.21580848781257164,0.1403627195167303,0.10765033562581451,0.2683873252639696,0.039693444805231896,0.17966160276590876,0.28220338765413094,0.21131908980109385,0.122421353067411,0.021101581153214147,0.04312338423574566,0.30639518050441306,0.22362417130675843,0.04419859806006445
HALLMARK_COAGULATION,-0.12075070673103601,0.12089464312692894,0.22441821341590576,0.04490686228255715,0.12862767451936405,0.02914443083731915,0.04601886628300802,0.22006024461239232,0.307976848688515,0.18729706139513896,0.010896731658827473,0.07366469577969116,0.2927054320847211,0.14594801722693326,0.17902761288376673,0.19884538659124734,0.05480957322586706,0.27205129299435415,0.31052209604535114,0.2805690949186545,0.18576209432676696,0.061054896412055595,0.07180878412620428,0.19501670328344187,0.2183692474474077,0.12933194616901897
HALLMARK_COMPLEMENT,-0.02932002423830633,0.09917346952777667,0.11745345942711763,0.08287012615318154,0.15812018476374606,0.01926744886469572,-0.02572162433228319,0.09340811921579488,0.29787359558475907,0.20422549959656658,0.049316467636783226,0.046577144930033634,0.16850893612693651,0.05705689204879752,0.12664435780002867,0.10441926408884927,0.033920776567310414,0.21318370197368441,0.2830008205520661,0.1775272208274173,0.1599767947556585,0.04724182992140183,0.0249164880773544,0.2922225877924407,0.07672951519307343,0.02032485682580186
HALLMARK_DNA_REPAIR,0.2835468437955825,0.19152432286520898,0.21977318205582497,0.10768947321630094,0.2414398561880065,0.08419297778491062,0.1089798598875779,0.36615197348401257,0.2977988120737201,0.16466430937491644,0.07815425340602704,0.07666533892301781,0.2769548934867458,0.20926303552719733,0.19775674359619574,0.25641696950530035,0.155147121909958,0.2873952967441362,0.318087876941067,0.25620776886791913,0.17139488195722224,0.11780344587417863,0.03105698385348004,0.3482433212062704,0.26025829535482303,0.07792446977887925
HALLMARK_E2F_TARGETS,0.2496626078155239,0.1277578283772936,0.19248047256915987,0.06693208807159697,0.16931089006847524,0.035079254784161185,0.09662148072135132,0.4009498575316501,0.2929473859732671,0.1824995548937414,0.07004061598856097,0.018655569236004192,0.2810308813302326,0.1480879398565218,0.08259925220597765,0.19841165977188566,0.07263611786917364,0.17439092463786868,0.29478025503837163,0.21966870105485203,0.16938760951280024,0.08884431993508092,0.00024349402132828275,0.30532252916504327,0.22304500349281467,0.02586655897771302
HALLMARK_EPITHELIAL_MESENCHYMAL_TRANSITION,0.24948355664479452,0.13996699269145155,0.17087880395092495,0.013673771793585265,-0.0022124798175105907,0.08820364182213473,0.020713499923034947,0.34533976341425976,0.2915953695579844,0.22022316459341482,0.028503904997794434,0.07988357783927306,0.0721750961647415,0.2807929550337322,0.26467602967519677,0.205359206033856,-0.023203028376633676,0.2880743280785744,0.2684686517419549,0.10118908983778288,0.18443538329279155,0.07130129427443584,0.14879098862399145,0.1249028983393439,0.28591627865507574,0.045719818725423536
HALLMARK_ESTROGEN_RESPONSE_EARLY,0.13067238619594004,0.08616258130382884,0.13560819498864132,-0.020286340056394556,0.06960687152513269,-0.007624939094890214,0.022887827036980477,-0.020109683051053807,0.26390965736763106,0.05897968112552609,0.04694585026421709,-0.013610820190405853,-0.06678039179339224,-0.02702932816494694,0.15732350781830612,0.041719160180633104,-0.023470209398675848,0.2803495644112612,0.3121683612430954,0.1945164862449771,0.1502643470907178,0.10759526900593006,-0.01400131126633452,0.26371178036056175,0.24250471859248038,-0.04931843809928769
HALLMARK_ESTROGEN_RESPONSE_LATE,0.03304226706777789,0.09145243227426827,0.19486589651566247,0.030303152045549783,0.12695842475868635,0.023997033738179938,0.1502052467562674,0.13342280923255184,-0.1312187263643635,0.029807312857345787,0.020364861632215528,0.06403258466865977,0.2061731159486696,0.10045113934516996,-0.020780854193652103,0.16260210019572313,0.011297552158814606,0.038954369798819555,0.29322021743383997,0.21736491859533388,0.12807483127400265,0.01659212466690775,0.08241646060150393,0.2442683661209984,0.08612617290994398,0.00729236808428486
HALLMARK_FATTY_ACID_METABOLISM,-0.05049374422604785,0.04909288080134527,0.012241312171513486,-0.008223989132785868,-0.06726510958076888,0.05362536344801343,0.01772973554959945,0.010865422286005021,0.20507425089084855,0.12191993953339098,0.04833406369051262,0.008298411504175192,-0.11509083683993651,-0.04066129823441844,0.14523084204622483,0.05312371981140382,0.06408275549186401,0.1824046539111226,0.11868998287580908,0.011407294978269542,0.05118249716885802,0.08296383237677603,-0.025930908152573953,0.17141301715357768,0.13259830440970966,0.021574390239878793
HALLMARK_G2M_CHECKPOINT,0.22333511589784538,0.17995748852172153,0.2318148158110334,0.12194252508027843,0.19655385801086864,0.0548770679587092,0.112103064287537,0.34233291044250347,0.316244862316576,0.22158515970573842,-0.009669051377585367,0.05468414002174404,0.2278424550619345,0.2256151799404115,0.054707379637529356,0.07514883782329244,0.030817678580655587,0.2520702040444611,0.2983586200043218,0.2015216330235385,0.1255688064178199,0.08213019714404447,0.034139417943743894,0.2941293312364782,0.2646041292917962,0.0307171245540781
HALLMARK_GLYCOLYSIS,0.2449943246998451,0.08403874629449076,0.10595725294510724,0.07064162005517675,0.09748534692292049,0.06142904930636166,0.009533363993815543,0.15675568534095327,0.2485299647685921,0.1002507478747867,0.03690989958065294,-0.009675689192672794,0.11181008390540992,0.11919434527192839,0.1996754479466654,0.21307183645619276,0.04796253635598981,0.22255478138211968,0.3417292874325614,0.22611369275265936,0.15283609752349106,0.06333050223332512,0.022576487230090772,0.3050697549827595,0.18796950838663373,0.0320395993508627
HALLMARK_HEDGEHOG_SIGNALING,0.04306138152000214,0.053118408520841265,0.17101408584239694,0.04168013130303067,0.13860457581323726,0.09007700910568349,0.066514947313507,-0.2500305473929798,-0.15727114807114248,-0.132525033690337,0.05589322179108655,-0.02224897157009477,0.1234046742423535,-0.041960504935498404,0.14726142682837468,0.12966150638074114,0.01661284725265368,0.15838398352124064,0.25026198840021824,0.12501951659693603,0.11924666369980148,0.08864292273709394,0.004077652271165814,0.28099437523006515,-0.08147742620081218,-0.021865028186169602
HALLMARK_HEME_METABOLISM,0.14624790904681648,0.13039526034886997,0.2555400625120059,0.1060344691445587,0.17732697138621684,0.08379012622292159,0.1335767786361916,0.15088341441594108,0.28741863222133585,0.10978995230636171,0.07181119376771546,0.04331523776358199,0.2373227690670433,0.12944676313607176,0.2067884780394609,0.16828448553887562,0.08558540632696902,0.25011810513192323,0.2923184088569463,0.23625593390020644,0.15638953677985726,0.1182320418068024,0.04959789296313108,0.31316493055800193,0.0858593426214742,-0.046218041348133565
HALLMARK_HYPOXIA,0.15261098659328193,-0.036402113182839674,-0.15491703916682914,-0.054595360472610655,-0.11350210394506921,0.055574407007815775,-0.0654107156792512,0.054909831813059126,-0.08497421935300446,0.14002511195972336,0.06511739281606219,0.10935636890436952,-0.20165773845818522,0.16086762173303013,0.15345794470234872,0.013129293717979123,0.01939690134577437,0.22576378530720043,-0.023052444328772126,-0.08336220761544554,0.1827837675217269,0.00016676313727745392,0.11220528934813342,0.12475609283730665,0.2502732787599818,-0.05218038103167323
HALLMARK_IL2_STAT5_SIGNALING,0.012586533352673308,0.09378110053914955,0.19917982966905592,0.037957991634307506,0.1763228605525621,0.09242770913657247,0.08199236080085621,0.13510624607114213,0.2880048381964008,0.08320714032227336,0.0353940413630783,-0.029687157279780205,-0.016387338699182213,0.09007254939479027,0.1515298443037385,0.16254881005457034,0.05799836565001679,0.1570150646712824,0.3188847522776132,0.21263884585648107,0.12589234380487963,0.05487866229590045,0.09604524511709063,0.2662798527279746,0.21503931587442637,0.13205655415427522
HALLMARK_IL6_JAK_STAT3_SIGNALING,-0.0005295491144616042,0.09025650828738609,0.19713822297720418,0.01654763150500232,0.10100017777969938,-0.013083265651428066,0.0836240213378769,0.2512132832922268,0.31024913980594887,0.16816938746143026,-0.021447015835119824,0.08191606977766383,0.16345561086305638,0.2020206962371633,0.13232897415281694,0.0961500648743882,0.08210798807647614,0.14307109226758774,0.24357168918231656,0.22331747021119083,0.14511815661211394,0.042118607485743934,0.03547260946660864,0.2241122456170551,0.27111939808393104,0.08282483094347246
HALLMARK_INFLAMMATORY_RESPONSE,0.1165998827693236,0.11345453234321347,0.12544019003018086,0.022191495795290256,0.04878779123521292,0.0549941896731826,-0.0252184808822136,-0.16403654116616193,0.1868597389264071,0.18390842644080793,0.03532427472209228,-0.06878809457944701,-0.06807532208803753,0.04855461161042578,0.07007325514911085,0.16818021033893116,0.0676824305449043,0.16952453414534052,0.13726427266022884,0.03448376161950415,0.12216950574701956,0.02118039299839481,-0.008614779870786276,0.09132836497467281,0.15977874912526632,0.08878945004522176
HALLMARK_INTERFERON_ALPHA_RESPONSE,0.14595325320070687,0.1036123876583817,0.17421047135267326,0.08008164191967226,0.16822362901240262,0.07248846527362117,0.11637853098124834,0.32255546134982527,0.3003206542562877,0.0806478265297788,0.01482226553029968,0.01724642140824009,0.2873374167774007,0.13966178535841559,0.20796826511793867,0.15668060985031954,0.10264701935219106,0.04771537874261528,0.25638533882089154,0.21304306422633254,0.042946275971678584,0.05153743912061045,0.026556049824450905,0.3004315871818812,-0.002662544980735218,0.113876350998727
HALLMARK_INTERFERON_GAMMA_RESPONSE,0.15375212780094508,0.13987498059580186,0.14629321856596073,0.029384281838394047,-0.011668155312167822,0.05562883878249105,0.038709297640876404,0.08046798993373303,0.2869181272807891,0.17090098890339345,0.015024885473234047,0.12531931078095382,0.05429656544097862,0.22312288089178484,0.23720288596902625,0.21407124029585378,0.01629923372258902,0.22215249857743932,0.3048883882782779,0.19287895656584578,0.12893405946594622,0.041126817513321375,0.07148489217340774,0.16214115144671207,0.23364473582997464,-0.05118408128103253
HALLMARK_KRAS_SIGNALING_DN,0.13271207758370915,0.08231513500789076,0.09243923643226792,0.07941144159744473,0.1263340319717281,0.0704842790298218,0.13203522509833976,0.01847783265527897,-0.012173266735452286,0.06526123490605412,0.04420069944473714,-0.008976139953268045,0.03206477232763158,0.023597729761439267,0.16154075778843663,0.17465901214737184,-0.002778820061609024,0.17560836147964629,0.23541517783700228,0.2343876352309345,0.15495295132414225,0.07728251682574881,0.07618315566950995,0.3135190546205779,0.0192683307190096,0.05946517126286763
HALLMARK_KRAS_SIGNALING_UP,0.0730729412499305,0.09011031737308745,0.15428605402957749,0.06825240241835112,0.16229973326713035,0.01715794351642345,0.0613962362970919,-0.2351129600414285,-0.044537003488506414,0.002092463671816039,0.06589297198100966,0.055540746374237004,0.2204726825653958,-0.020310511624660972,0.19699363511410656,0.13902172419764447,0.06730910086503519,0.1689187565855723,0.24084959830158734,0.2085664239172948,0.15871642057396843,0.0626052859832173,-0.05329102730058721,0.2221505816752143,-0.007027791565498508,0.0018603204977340965
HALLMARK_MITOTIC_SPINDLE,0.2003167394589862,0.1728994238587449,0.2572462509874033,0.12255994737848193,0.21691440004693366,0.07528882197454323,0.11633934468907126,0.3353686303116818,0.3027834395182933,0.19865934599546625,0.10925680081379051,-0.010002307638463406,0.3089587605709238,0.12791525221354422,0.17437898552501532,0.21022225020203686,0.047819240799326895,0.25775659468834855,0.2978191982886095,0.264369434089404,0.17784122635879815,0.12877899812232976,0.03358807355216354,0.3424573920008948,0.16740346531738864,0.075153764197703
HALLMARK_MTORC1_SIGNALING,0.23310403632871787,-0.004268304433532625,-0.02403489227231683,0.05345237183214466,-0.030187955031443923,0.04084044821371186,-0.0576452783788071,0.2953264369977954,0.2713554484891703,0.13981949914726552,0.07446744649707987,0.04095871051800465,0.04300472337824671,0.18142732347282808,0.10879274329739454,0.1400599991526244,0.043882508395623236,0.17501698506673502,0.2147242779944585,0.062020577295344916,0.07339509319510662,0.021104919394203225,0.05195118512161768,0.2239669287737967,0.2007866140421332,-0.02681058972887687
HALLMARK_MYC_TARGETS_V1,0.2661659661662473,0.19883191110043139,0.18338259489323308,0.09927574600652576,0.19093871069969018,0.05392673077517453,0.05181149027275099,0.3985299337775434,0.28863221294062635,0.10277581349359428,0.04839781704766977,0.04276160283583392,0.3006508656452155,0.24498432953555171,0.1495362100832123,0.09317592710310452,0.10183092987282664,0.258061140883567,0.2251559791106614,0.22668757665147704,0.18407000950353045,0.08490930900147,0.13053187731443763,0.33486726125599225,0.2544226550433398,0.10611396202979363
HALLMARK_MYC_TARGETS_V2,0.18688713791526923,0.0840538048225333,0.10565785967319885,-0.014310589643291606,0.14603593435043802,0.06081864000218584,0.10500044496563621,0.25351532072977817,0.12035828254593489,0.06803867679871317,0.04723228548572027,0.02332281302129631,0.07067751791237532,0.08600928419966267,0.08438398336542108,0.13301186301995574,0.07508350281345662,0.1759988985425447,0.20870879397027445,0.1795954464151444,0.028434465252696217,0.003692886710303687,-0.0383941876880162,0.1657659752275637,0.215643492730095,-0.04017781345938876
HALLMARK_MYOGENESIS,0.17393746350915695,0.10339503590984447,0.2477811298902532,-0.0016942860934614683,0.1515120990435353,0.07760814953637644,0.15371277237635644,-0.11943071543855639,-0.04139751375161183,0.06421157463183673,0.06591809665332711,0.009373155910906459,0.27928883051993997,-0.04562248353136071,0.19841662805710963,0.23258571787163676,0.011894160357705187,0.20498590223346647,0.2376485654592629,0.24163659947788352,0.13371944815066336,0.09595963699858279,0.015513230421152189,0.24810027570026322,-0.008499465223458123,0.10074550778637811
HALLMARK_NOTCH_SIGNALING,0.2755614715692394,0.11919116223346374,0.2581763848843636,0.02574210224753071,0.19366322968537555,0.003427444383945623,0.1106498847329456,0.15128446828372571,0.275551300441784,-0.003972127951447481,0.047826025611052966,-0.02339599686849182,0.28465989233023814,0.14505127741620427,0.17157816331040504,0.24078313724174985,0.10450357450406905,0.25803517544760823,0.23013639364710325,0.24297140069509715,0.16013287815169744,0.10035511501325203,0.026656019686741847,0.34681526247779115,0.22433122504773959,0.11005527010725645
HALLMARK_OXIDATIVE_PHOSPHORYLATION,0.3034464316062816,0.11542925428441074,0.11944604296767591,0.10422646591820445,0.19097751606202476,0.003990544335336421,0.0422692485557505,0.16258054367730482,-0.06394557848035168,-0.08493131627381799,0.08837588474194696,-0.00326272630332461,0.2720851146395688,0.10605870461254313,0.10654020458421899,0.21572398434883325,0.1361838286171909,0.23558911601047208,0.22555854077029763,0.2308056700301156,0.15551589462032347,0.07878067158417412,0.11187122639194051,0.33888500513813063,0.052238419691084594,0.016869525560454873
HALLMARK_P53_PATHWAY,0.07793114828778212,0.04073875006825184,0.11908548898536095,0.02331833626892034,0.158531605860576,0.07758291555254755,0.04808264133693317,0.3147533526630091,0.2784660753524386,0.09430923808218976,0.048890669862167106,0.03684711203824338,0.11490084444088781,0.15880861681935057,0.11660613313540187,0.14620179651859194,0.15953427552160157,0.2683066363318617,0.26676429313414396,0.21171439666099479,0.17750484784685805,0.05646275424099794,0.13232386409866664,0.34341659766655663,0.25228425798475346,0.040935744263215515
HALLMARK_PANCREAS_BETA_CELLS,0.19013250645728952,0.11806003785783523,0.23200808438857196,0.08667797752146461,0.19223439939299994,-0.03392766670585056,0.054835892216336,-0.12214226552418062,-0.08465834406755296,-0.05968620144169301,0.03236952371027332,0.030948575994970633,0.3014074804963307,0.06833489705046523,0.11784479729707449,0.2282575579061945,0.048046173770017644,0.17338023984807097,0.18100364566715071,0.18884925714220085,0.15557533923076722,0.08251542445245501,0.021788039447634706,0.29662475125602106,-0.08902690659108639,-0.019352175727673542
HALLMARK_PEROXISOME,0.07963818851551695,0.12893658983848116,0.1640451348432373,0.0969976790858657,0.12722422212536866,-0.05386505269210196,0.08907962064012366,0.2252815962382961,0.15939210108537302,-0.07971214490967996,0.014365915399523992,0.014132901203819773,0.13928015831920687,0.006204300854672257,0.05712367701433678,0.10929067381429235,-0.00940158336640588,0.10964265362248377,0.1920903542932597,0.18636488134254484,0.008758834170424487,0.02948078106376721,0.008065605693303272,0.2671786495686794,0.06784202427128565,-0.01896840899804204
HALLMARK_PI3K_AKT_MTOR_SIGNALING,0.20927789567507848,0.1379763108438304,0.2194590915704672,0.1122694893253542,0.15970120685374728,0.05419518638201306,0.04929710249190211,0.09767789700658272,0.10322874091185529,0.12401986708315484,0.09942803984448585,0.06313171825545444,0.22524460564715051,0.056277999148863264,0.2274059494114067,0.16838901296667722,0.06708487192085431,0.2083103764482353,0.27398346713744387,0.2300367408668208,0.1498501596857569,0.10257693957944816,0.006608781973795806,0.3141812671779482,0.12563222325318354,0.019418206108362694
HALLMARK_PROTEIN_SECRETION,0.27405897089785664,0.181918535064252,0.25826865072435157,0.06740241452525507,0.20155110670862258,0.09441418157409279,0.061236056665510984,0.09381309305892623,0.24602279010777678,0.10116985875361373,0.09639258402049994,0.030085441947086962,0.354213581089806,0.1424313301443678,0.23345097166919396,0.2676535804148544,0.0533046396862501,0.28700285885377164,0.3287580591679738,0.24879991859380376,0.17252583736903446,0.11007091816784348,0.09288788363504169,0.3333033728960725,0.19175266854261103,0.01643762430799268
HALLMARK_REACTIVE_OXYGEN_SPECIES_PATHWAY,-0.12256818305846008,0.025203903916572193,0.05727662021107864,0.05349245792756887,0.09355848173451026,0.023175950728697863,-0.06838483067729027,0.0733319070563542,-0.15398595235520762,-0.04592429785666726,0.011896147882263923,0.007378947509004588,0.2206005383852215,-0.017666378436081837,-0.036616652574418915,0.1752560074599342,0.15489622305414438,-0.07099827138644893,0.2392596626943945,0.22562218921692706,-0.04554714740514272,-0.03956155037227513,0.09458791134726535,0.28417438275203605,-0.06673864064380958,0.11574848082271728
HALLMARK_SPERMATOGENESIS,0.19383021627687042,0.12063105383221795,0.22714080578306492,0.06581325849879248,0.20615710905502752,0.07194736226246913,0.153130693163881,0.0911718796643401,0.07943417052539452,0.013228067773426342,0.06548211127427694,-0.015443672598111038,0.32149190174131426,-0.0326097158126924,0.17874317041411983,0.1649646134387296,0.06379728882520565,0.140767048179242,0.26908175147970087,0.20147189837812282,0.09266575543013034,0.08224965564442983,-0.018079603600644253,0.32260647084165983,0.010465681157859022,0.08589566800529126
HALLMARK_TGF_BETA_SIGNALING,0.11151795565601334,0.13820429393426428,0.2565354685875976,0.04514400761249649,0.18029507538882583,-0.02272389882599439,0.11111995792704617,0.3438780226386159,0.29590335285646596,0.006616695146444718,0.10660967738334477,0.08620576258338239,0.23011191823098442,0.15585725566510958,0.20498615217756339,0.1227717903613523,0.01890953403304626,0.15143317749412305,0.17322258531839546,0.21747600388421023,0.08829372871142165,0.0923264422346068,0.05618455275451518,0.24723304634115056,0.2500515097693237,-0.0775447526539393
HALLMARK_TNFA_SIGNALING_VIA_NFKB,-0.013945915791130076,-0.0324940037701962,0.10671020089999099,0.12373171092599472,-0.026527612559467197,0.09076788332752997,0.019211589533590378,0.10353422621768696,-0.17403183645424516,0.18686068445289705,0.02364415753464568,0.07928421602431919,0.009234821374802743,0.15153617984892648,0.11936160857613981,0.0766203351419198,0.10533026144706534,0.016178876382399125,0.08325341354517461,0.04727890470303947,0.1326145460893174,-0.032694006186429696,0.1341051098232617,0.029384781014798807,0.28844404851996863,-0.0761279851155793
HALLMARK_UNFOLDED_PROTEIN_RESPONSE,0.25362096322829725,0.09299797385874577,0.20642871955204503,0.10015149961034582,0.0962935454709701,0.09444764187453138,0.04937890536964566,0.3610292667574974,0.2736154156265995,0.1850030648551563,0.09755807759527829,0.06874286298430392,0.30955074573170344,0.21842482628776982,0.2236284706329027,0.2550069387141952,0.06068716304687915,0.29574241433739856,0.33480957670690153,0.2698511234598464,0.16693244799677492,0.10745341635851167,0.08693520638770995,0.318507107000134,0.24461595338051717,0.027076129825732025
HALLMARK_UV_RESPONSE_DN,0.19033797752252962,0.08321823175163093,0.2000972509177403,0.039943785410307894,0.1888147881028601,0.03267408060744731,0.08634434316979837,-0.16760629286088466,-0.02642990661646971,-0.07891720872725298,0.10704620461311157,-0.014433031684092098,0.05141695401059846,-0.03486074893190111,0.2587321667172371,0.16460844668544228,-0.06831678356268421,0.1726878651031307,0.22123302858759053,0.1945490295585568,0.14014311032220075,0.11173355658509852,-0.034877130721057706,0.2241512254359626,0.17845621041440982,0.03449926134294611
HALLMARK_UV_RESPONSE_UP,0.18142066891094133,0.07100558968759343,0.15216913934564033,0.06823674667457619,0.19758008012095601,0.06047382667315416,0.03723827240038592,0.07553596891137461,-0.13784559416905756,0.013515597719476679,0.07105827864540354,-0.009373943298288216,0.15223704846214328,0.03980327557917616,0.17519049811048726,0.2780277191858637,0.11064352628997702,0.2066237295296986,0.3211152109499789,0.24036381629630363,0.1620310287804836,0.07357817570591707,0.03410768481318675,0.3391068654536798,0.12707354803344828,0.05080424291044313
HALLMARK_WNT_BETA_CATENIN_SIGNALING,0.20575580792229511,0.06095926814760018,0.2631855405903689,0.05069421348788954,0.06131613575967167,0.04778387121814693,0.18928692243047907,0.344456856944894,0.3175731615590102,0.13495746800957648,0.010656777582627598,0.0330819678163948,-0.08142379757690527,0.17515360397834592,0.06868688270142499,0.16954770570445932,0.09811235797097152,0.13050747687121206,0.09197437938333097,0.13129604179604212,0.1339582280441087,0.04952927198606927,0.032696285574924336,0.19266399740339074,0.2107587512842107,0.025965822790915756
HALLMARK_XENOBIOTIC_METABOLISM,0.20328591807261082,0.13332762942195814,0.12122201319463018,0.07162926225758016,0.09127014086503252,0.06459393637197984,0.07943408265732449,0.1178812952364189,0.12901144947050253,0.13419155544427763,0.005145423368051055,0.025890047670191516,0.1222641787917446,0.07176212296514091,0.11394431702068074,0.20501303030624365,0.028861797306484607,0.254876104202126,0.3244157631255848,0.23389675043562363,0.15461355198309457,0.0271413167880653,0.11748486019174073,0.3041812141742263,0.18228783358383285,0.006232353744859446
