,MGH258,UKF243,UKF248,UKF251,UKF255,UKF259,UKF260,UKF266,UKF269,UKF275,UKF296,UKF304,UKF313,UKF334,ZH1007inf,ZH1007nec,ZH1019T1,ZH1019inf,ZH8811Abulk,ZH8811Bbulk,ZH8812bulk,ZH881T1,ZH881inf,ZH916T1,ZH916bulk,ZH916inf
HALLMARK_ADIPOGENESIS,0.13477782920760717,0.04004430872540115,0.2433105569450341,0.0106551147557728,0.13497893543357325,0.027655718867839445,0.004021248105984249,0.11576193469873305,0.37899830714244354,0.02214586871046416,0.016182603253825964,0.010848191400399023,0.11476467757474274,0.06544431335878005,0.25989850686138377,0.14914534404102597,0.16299519324256853,0.2763025792366682,0.052349403390208646,0.13405578877568408,0.21643063787619565,0.09334856551619566,0.10523629312625027,0.2988925004143367,0.15138380088316342,0.1286897061540323
HALLMARK_ALLOGRAFT_REJECTION,-0.02716590206834215,0.004891017909936315,0.22282667047918298,0.08376509397422625,-0.0025041293174237695,0.01844493774783875,-0.05065929005163058,0.2570346701669518,0.5141610850484967,0.02275376053361208,0.08301846287413153,0.13852193057764065,-0.027193620594171273,0.19967513729974828,0.1409755076850832,0.06729975203530364,0.17687408272241498,0.28918960193029813,0.1349135803809412,0.10858014846589782,0.10984218478560523,0.13031342932827786,0.07249065702751777,0.41381925345731363,0.00909436599796936,0.06370462155003499
HALLMARK_ANDROGEN_RESPONSE,0.10972879669035158,-0.0042932384305454,0.24323969752899144,0.017220769742753,0.14224046944083685,0.0450369431051491,0.0970225870122062,0.2690591963927217,0.4368902768159334,0.044406422406635296,0.04119086742878094,0.0718727139919656,-0.015900466857040618,0.14897709401803283,0.2084233991749555,0.14699185817958568,0.1561636203780215,0.1965080269710942,0.0782841880941906,0.17964784996924252,0.08433085693965447,0.1606722194987032,-0.017892692116177143,0.3751967181434375,0.1900317266517373,0.13842445757756291
HALLMARK_ANGIOGENESIS,-0.020994190385744984,0.033375488590191314,0.02321630529417059,-0.025187994615085026,0.017157925822215817,0.05500393690595361,0.017954267197873477,0.3330726893089452,0.5061608890271749,0.12063628003930314,0.048026254444778635,0.12155816302836278,-0.15741683229491785,0.08579526893416885,0.13054857651292895,0.02439880789552365,-0.07862619658327212,0.03088305572659267,0.08934319664511486,0.0769564372340566,0.07007907521203402,0.15850618695850213,-0.006118328184114752,0.12126370796024469,0.18265498054792942,-0.1652730152115332
HALLMARK_APICAL_JUNCTION,0.16175277338331334,0.10732287452212738,0.35150782775482675,0.09734462327221506,0.13209328014171232,0.09451489459889005,0.1944835530959653,0.34948280507716445,0.5387943068048711,0.206230629036205,0.06771228145276358,0.08917666796988806,0.09688417632986432,0.14766267278774445,0.34707226493908516,0.1566390181685429,0.20987338430482072,0.31265651432996366,0.04860259442275476,0.19012816951858968,0.21303862661219775,0.1675861609974913,0.07250125994775214,0.46843633171977966,0.23917091601298984,0.1637373386230642
HALLMARK_APICAL_SURFACE,0.08082863402779175,-0.049525974233602874,0.2075620002280987,0.02384628755275524,0.052870801839900644,-0.019006351232796755,0.055608761970845126,-0.09201774990641493,-0.19050873948429012,-0.003854523221542272,-0.048425911212556655,-0.09003447745402486,5.470142372460695e-05,0.07393171449086637,0.12767421439273033,0.11960023087325776,0.08549162053801923,0.2287007397164048,0.06735473775538786,0.11684489017398908,0.11825885257697354,0.03715308082513158,0.03235812663855925,0.4052190241808204,0.07622049624755445,0.13084967431152522
HALLMARK_APOPTOSIS,0.013753927975221552,0.053697623668218876,0.18555311953527637,-0.02227815459139416,0.04050059862928613,0.009505140679615996,0.13165277220583194,-0.03366675923384788,0.21766234369987772,0.12158906273395285,0.078834882290592,0.15264784451585375,0.1567271189213527,0.020848535262890534,0.10252210788543595,-0.014427662608625843,0.0530697248701079,0.20216875337317164,0.0769760360949647,0.09845324098629067,0.10562423639097915,0.14640491667923058,-0.012576154373675924,0.28931219224970234,0.1903510415508959,0.06525562837129345
HALLMARK_BILE_ACID_METABOLISM,0.08800296269468984,0.028492869234049183,0.05151577990706193,0.09471884310471759,0.08262049324568452,0.038147506200734045,-0.03125158000829937,0.22809619162082478,0.4304296258286994,0.13671392442003785,-0.00444987170470463,0.09100241241173505,0.023812225821701814,0.06007786612300024,0.19509622820681288,0.0436318115325644,0.059754078887780684,0.11895280217632116,0.06134802537847378,0.0807331403956579,0.03796269787969584,0.056717999915046516,0.017755425210731403,0.11749747526370007,0.11395419507852998,0.09441347652636951
HALLMARK_CHOLESTEROL_HOMEOSTASIS,0.06802967359028016,0.03586801483654399,-0.10253299858129575,0.03108801622713309,0.0744301537454036,-0.006324749985592172,0.0563317035412711,0.2818186862385264,0.33015917285120605,0.08112976716344279,0.031993849010514844,0.10315407783209743,0.07663472651795947,0.05767443791993454,0.08901766898245579,0.054231191740232484,0.13406836402982383,0.14502853508456065,0.009319048323479653,0.10957682040462471,0.10758803423971808,-0.049887830402149905,0.06198520865472548,0.13686555975771914,0.10405946144792415,0.18319358832307225
HALLMARK_COAGULATION,-0.014389553798482804,0.10690782208014579,0.40820042603319895,0.1011398922167208,0.11588224506888643,0.04021841053824047,0.133827129469349,0.2491819284223451,0.5135271113011309,0.1407759949062617,0.08105812865411248,0.19110385689883172,-0.06101733768562236,0.19182061810428902,0.37522626359650996,0.2139014077241251,0.2358421289453581,0.3835916644527489,0.1274312737260964,0.1816933674948827,0.19550619828800744,0.15342392812153272,0.13236764886789382,0.49451475947217677,0.26744222988989247,0.17063941412159164
HALLMARK_COMPLEMENT,0.035874077019735856,0.010496302488721987,0.09326565981684484,0.04423210161890024,0.12578694668131835,-0.0012155339636284591,0.08688601846386725,0.14077393436717112,0.5163353896124906,0.12787316080020245,0.03134845828801476,0.15864736408746707,0.093704762888465,0.08154968457765634,0.11656540834175211,0.025780312114724504,0.1831191245190529,0.3023141408416992,0.08755743490230586,0.15697306158153748,0.24852159911814714,0.05239239413174246,0.08616022476549122,0.19070104500180265,0.14121819826041265,0.1305756329998602
HALLMARK_DNA_REPAIR,0.1078409092203698,-0.03915315049481541,0.14631433403699165,0.06184007076568454,0.12827407587322062,0.034511051721278024,0.04674038788470042,0.28757902490360604,0.4951750563087076,0.05925282780810743,0.039632554362594136,-0.0037303289473800513,0.08635199236992475,0.14345527712915915,0.14509517577694375,0.10660133368253752,0.131720749124789,0.3444249570139118,0.07149452089796653,0.16373015138507016,0.22250954394065237,0.06851795428931964,0.07929469754177348,0.24257933823343925,0.11095147445613301,0.21998277007842693
HALLMARK_E2F_TARGETS,0.07571971796812059,-0.01947943289271596,0.12661298002178276,0.040888180534822495,0.06143508377363883,0.023759127166837295,-0.014940859803371563,0.35856552895423677,0.46961920316622047,0.1323566559082617,0.04804251485983944,-0.057051682019717165,-0.04641039458755681,0.1400310005918385,0.012200151894499791,0.07228194838159953,0.06961992228789658,0.21097562669604034,0.16109145339400863,0.15923123385889548,0.14059889008681703,0.08442421989605786,-0.0238137582537451,0.157378143667579,0.11525767207847432,-0.0040634631284842395
HALLMARK_EPITHELIAL_MESENCHYMAL_TRANSITION,0.12895648048214567,0.17461118234482287,0.38351011116539296,0.02012430582328535,0.1524340973903964,0.10574983453605778,0.22715663902987848,0.30826372159316895,0.5615531617556007,0.12310930670588657,0.09900127143070579,0.1769139242275864,-0.09939555464928289,0.20979146782891156,0.41745571148533966,0.2781950788103224,0.18981514705573102,0.4460930474749071,0.207462718248272,0.2371481399961417,0.25802170354588794,0.29867305637154135,0.018049417596297367,0.4945483171328639,0.2989481617148474,0.12418109005086832
HALLMARK_ESTROGEN_RESPONSE_EARLY,0.06940315122920733,0.00415920881875372,0.13406461982373988,0.03867429444173819,-0.06598544967364804,-0.03545976531131475,0.04623180271355346,-3.6622397586756836e-06,0.35948771465044294,0.047174883665523325,0.06621203433441489,-0.10875538268643335,-0.16203582628762514,-3.833739465468411e-05,0.2506515809116012,0.052401802559731626,0.10379633769808753,0.278331869809039,0.03594089958969706,0.15468661147010662,0.1937772409177703,0.06974738182282494,0.060016202046314894,0.16913701826781435,0.17461392839101345,0.15743631813442005
HALLMARK_ESTROGEN_RESPONSE_LATE,-0.00020099206264212246,0.019431819561272684,0.13278997320995728,-0.03125418102526786,0.061083910525587745,0.07939333301020218,-0.05218766249819293,0.05731153312623231,-0.09221365864513566,0.02718516757430111,0.023474691240618493,0.11899931458772993,0.12283166607219774,0.01000960108563254,-0.0918420700190914,0.03601933351388604,0.013912236320172895,0.09426647634145585,0.07352950963388093,0.10216380738938506,0.1828652563694772,0.055453638546976665,0.008654147816179632,0.10715641592169765,0.04894624851679667,-0.008639242803974165
HALLMARK_FATTY_ACID_METABOLISM,-0.02696751912733434,-0.019481095029291896,-0.03508014639547216,0.01017087976686197,-0.02022733483662114,-0.01212071503967023,0.07855454369663137,0.000978238036510549,0.29526843097874106,0.09347380904525031,0.006113834549515403,0.015276876406408055,-0.1315884298455291,-0.05361946203753944,0.19512582037094717,-0.021787885980630913,0.1122616447672044,0.21103221222360216,0.031347443769477915,0.0859028702343616,0.08394913521487463,-0.019520867249450412,-0.039948061737324736,0.04925576840470802,0.09595007893688527,0.1082844158802624
HALLMARK_G2M_CHECKPOINT,0.09953549071009293,-0.001613425387399616,0.10765519622181002,0.04674889570203684,0.12039174879275588,0.031085373300801303,0.13532029842820362,0.32236133884976564,0.494710880198218,0.10454127084554103,0.03542592662946516,0.07046511483294618,0.04618326940867754,0.16093696401529364,0.041407867589962066,0.0471034873397898,0.005994376530515158,0.30176537650213964,0.1752958422348857,0.1475004762704254,0.13279396207379632,0.05152241386795822,0.024786883022168336,0.15477417611549202,0.1248328506062422,0.14186064081367353
HALLMARK_GLYCOLYSIS,0.10151988534192048,-0.02409831352168644,-0.04042955168846711,0.05252627152446997,0.06180423167669991,0.04573577555532494,0.05189386350715228,0.07256667153063398,0.38746621749249893,0.057032040949524014,0.011797136739861703,-0.07315540590722933,-0.06912018286352124,-0.013403735695781583,0.08653638413925223,-0.006391595045274313,0.029150990397790934,0.21854993382754773,0.0763429045248807,0.15468846232414346,0.1789136662040058,0.031630340241427836,0.07213979753278484,0.17419793009449044,0.1321926775359477,0.1840257090707081
HALLMARK_HEDGEHOG_SIGNALING,-0.05014593080867946,-0.005349068872320111,-0.00024869501145201675,-0.0069336512442252736,0.05975432436637446,0.08641188254312024,0.002049744765203309,-0.23205279131475945,-0.2197466476044266,-0.030757494045177688,0.02297852283920579,-0.12211854501949404,-0.029567490239402125,-0.050180668246391946,0.31549815942478654,0.08013451245432548,-0.030922659059018115,0.2702909782113901,0.011304949950382254,0.12629219650789372,0.1784151518671518,-0.014783150056044999,-0.0024952234029038704,0.13635585311943324,0.04898057003332182,0.1432968182950954
HALLMARK_HEME_METABOLISM,0.1469133156034836,0.0110218605458601,0.21650529643734814,0.013142717498355213,0.08461155676393528,0.10876046182025575,0.024293496443940504,0.09272244287416116,0.4766766423052028,0.14558458085871442,0.08245580803003132,-0.009907544266929394,-0.012824976508751139,0.04762192515976706,0.23120130240072098,0.0502593436151787,0.1795588859793433,0.2910803201872083,0.06251898349245699,0.14691978255559793,0.18249757325950536,0.05112648100832364,0.12623345039641862,0.21656998322214444,0.11482317882483892,0.10971729682561243
HALLMARK_HYPOXIA,0.12277531172292706,0.061756993614967365,-0.2005763160941461,-0.08072112179817752,-0.023956095807655686,0.004999157369604876,0.06599694325195651,-0.034806898714924414,-0.09800229049120032,0.11017882750405368,-0.024457149790556566,0.08197971325517714,-0.12308543008636087,-0.02602557281193944,0.14127298052857812,-0.036143623017741454,-0.08869148850138239,0.25037829993328126,-0.07954874716251042,0.03862758370233281,0.16470840832445538,0.003871568691573837,0.018350637695978073,-0.06873249710220335,0.11795933535206272,0.0779761838405312
HALLMARK_IL2_STAT5_SIGNALING,0.010446344611315769,0.0896508711744795,0.23732271957470358,0.0339114907633514,0.11549381772411131,0.03823597326848276,0.09244114967085267,0.13937817733984897,0.5081339244341223,0.07554897351091683,0.018489737329211407,0.016949517867437487,0.022895334698952916,0.0788323023014596,0.19019841568603588,0.12618480392549836,0.16007075186806952,0.20077564517538918,0.06920942987534916,0.1489579421193912,0.10680034976772765,0.05339435759587426,0.034878237924971446,0.26145358171692556,0.18725559195467267,0.1870298584736607
HALLMARK_IL6_JAK_STAT3_SIGNALING,0.05104052118763998,0.14625140684439142,0.2450616176739221,0.06068374174343012,0.16851130404106068,0.07603702261958041,0.08637696176008712,0.26138925324899326,0.4546645778445237,0.1963163534216001,0.03136357052939326,0.151834169682753,0.007784336634391186,0.07580507571469641,0.2213618636322812,0.082441873928694,0.01934701049532799,0.24300834801542032,0.11828133328855582,0.1176066362563852,0.12688141955258903,0.15913048734626062,0.045664612544487816,0.13814728404461354,0.14246601910152076,0.021221142749896612
HALLMARK_INFLAMMATORY_RESPONSE,0.03689319227948729,0.11838949735879446,0.17895839053436932,0.01419575001715794,0.10773861182793185,0.033409292905283196,0.134977046028901,-0.12105002032942867,0.31065848764066545,0.09712216115632445,0.006458563633221787,-0.05989428288736397,0.0188778224449148,0.016533386175220818,0.02313634803647645,-0.0162229337842877,0.082203327493748,0.08952620007998367,-0.002471407797908054,0.12537476869504813,0.1785209731814739,0.06272591025945899,-0.021072093664622166,0.0888162224372645,0.19901595512129341,0.12778464619566823
HALLMARK_INTERFERON_ALPHA_RESPONSE,0.12873739736631118,-0.012215548806979719,0.25174786217591894,0.03522173171035092,0.06412982409808714,0.02347828008723264,-0.022703226507160276,0.30445688696719714,0.5054890855114942,-0.0012144118302692994,0.09341634586604756,0.1641833407571635,0.11674356412575537,0.10444948121490827,0.2219559033465041,0.10341152647680792,0.1267096554245866,0.1250052015982916,0.09680166686818134,0.10613667703694715,0.011155321037902467,0.13043235567348957,0.08361185891269887,0.3740511265497763,0.10638502235940732,0.02839231475598127
HALLMARK_INTERFERON_GAMMA_RESPONSE,0.10803277331450363,0.09983429603846813,0.23487969878383702,-0.008302734201855257,0.0686213616747437,-0.0175512192755191,0.18910598648010257,0.09184483156963977,0.5322680519317295,0.05209196157080186,0.03297898069909401,0.2262309099993105,0.14836671689069736,0.16457558778105458,0.17337367056037575,0.09443278978689795,0.16957260205458902,0.36193278382605476,0.15552553833612798,0.20229191913858705,0.2278822274189277,0.21101672665081736,0.06628684066820148,0.2962418834949143,0.19780881912349124,0.11138646972443873
HALLMARK_KRAS_SIGNALING_DN,0.08153747222621428,-0.05988078337622725,-0.025673098576599565,0.043278648663868616,0.1076726006035001,0.023897642863600993,-0.054058036833675265,-0.0693490385134875,-0.06396329261852896,0.024327061208701175,0.04363131175497575,-0.10837655754525818,0.18685318482111232,0.0015222749417409859,0.06219371126667931,0.027797186728060246,0.08016987795295591,0.15299887590991518,-0.015937451379071745,0.10710833708943886,0.09421478217721635,-0.007030854256701782,0.05520106992402863,0.1168277554114969,0.05984583075470937,0.21328834955132062
HALLMARK_KRAS_SIGNALING_UP,0.16051716500283808,0.018665732343940082,0.14675871482024072,0.030863380535469945,0.08846456947131673,0.04239484303628712,0.05671792234447404,-0.2392904917620572,-0.018534029723895985,0.020100671591911874,0.01927250964455221,-0.09114838956262065,0.043224476115347715,0.02326503777288194,0.2065237422190676,0.09914492412957746,0.051347463850006374,0.26895360290610437,0.08238053708421123,0.15589598924968245,0.17033529767093272,0.10511278217966784,-0.05739765577132818,0.41778212963154193,0.11008756535767004,0.1025146335196543
HALLMARK_MITOTIC_SPINDLE,0.0950987011356162,-0.0059084148841211884,0.26527506958015884,0.025539364874228254,0.11810806655342662,0.09475319583078785,0.041681138496950446,0.29163975516138957,0.452461611989101,0.20314795778341338,0.08108157239107636,-0.03762853589037674,0.049556898085163996,0.08793362896877581,0.28613277795159814,0.08975987618269285,0.12399912657761472,0.24582788791282412,0.08176479017781908,0.1841437122902454,0.10792726841490413,0.049226607704641046,0.06382747456869471,0.3200044957653534,0.2062569937389278,0.15923065219955201
HALLMARK_MTORC1_SIGNALING,0.1088538762920841,-0.0691055217411615,-0.11167026518958877,0.04228345392820115,-0.036661462139010295,-0.0159103945799326,0.026371303386216873,0.26517558056666374,0.43861030545350715,0.09220645140672727,0.05672665464105295,-0.029826818269563318,-0.12034222356774876,0.02226409355772106,0.13023977017108837,0.06600727067794344,0.03599037913537906,0.23519839243398616,0.08199768760053704,0.07037657412374483,0.08624445885296096,0.03241978480670385,0.050446009652073416,0.11286854218566038,0.1375750035171951,0.15537909201783354
HALLMARK_MYC_TARGETS_V1,0.09804427348950875,-0.05947979239794089,0.0940645600311628,0.06479784378394639,0.06877150573147658,0.001570183121771864,-0.0055076170679182485,0.3440781470050689,0.5026625675820053,0.07475388648447376,0.05284344540898811,0.006316653124493189,-0.0028314997447524038,0.14875716260044086,0.02916066256351221,-0.003672805657420915,0.05078708300361336,0.31357693770623957,0.0639143557927424,0.12809671270280942,0.15841374614410308,0.029082107414598574,0.111547485361059,0.1818674059002965,0.11934214789998958,0.23660135884766456
HALLMARK_MYC_TARGETS_V2,0.044146273418040165,0.05279510997463095,0.12000621865683402,-0.08339683956946325,-0.03060616670141631,-0.028565125148654922,0.12202868838891785,0.21281138842291675,0.2103950830480683,0.0596007051145582,-0.03645542653056315,-0.037864524982104755,0.05121462175889407,0.005338025942169181,-0.11596768949421947,0.005125546265831614,0.09378065689035017,0.062218981112247926,0.046691097671540234,0.1265751029471056,0.11651566774172115,0.06060287946932821,-0.04147682555156685,0.11205190316573371,0.12476511178819168,-0.06316528948790379
HALLMARK_MYOGENESIS,0.11217861021184895,0.05367307486380951,0.3936808705180055,0.03336371831524179,0.06606652665991027,0.13073893960587038,0.06081903873545779,-0.0760395295030211,-0.0044290820473893424,0.026793040626296758,0.07387473754784749,-0.03446652278669067,-0.08938988530745229,0.05766931773623374,0.4243211686939404,0.2443639965763966,0.1508362868119033,0.2833721608209035,0.07432272153447535,0.1782508067848615,0.13063586883687528,0.15912669051034914,0.07463623123687302,0.5040897311335443,0.15780499121171995,0.11918206730507871
HALLMARK_NOTCH_SIGNALING,0.09636094550858973,-0.0030353927562805395,0.23891667925700047,0.010744656371086753,0.07194687394498088,0.024247345807809066,-0.023523892120923137,0.17956669537805292,0.4744833735132874,-0.011399953049196197,0.013772816096529524,-0.006383300650857719,0.08321797136449118,0.12210008553601223,0.1705447374502157,0.10127782502054053,0.14121075386252296,0.2884868069633125,0.06732296956241393,0.16286356176554975,0.1711347912761183,0.08299989639358431,0.03839898702363045,0.2692925653921035,0.06568427591337637,0.17586904698632713
HALLMARK_OXIDATIVE_PHOSPHORYLATION,0.09431394119103295,-0.037702987149229525,0.02916811232183762,0.010020793184526134,0.0863884527318035,-0.006106778059782205,-0.07917555538620902,0.04936660964217048,-0.015131645060555492,-0.08079854686771934,-0.004951868809316445,-0.07674862122736713,0.07069442053883362,0.07572617277786635,-0.00966885956425001,0.040752108518542184,0.05913623124877312,0.3143156236389485,0.03476962123544003,0.12120474834444048,0.16008313776088906,-0.0031712097774086374,0.10189056892068832,0.1845453253156091,-0.050595355143113925,0.19410923669075245
HALLMARK_P53_PATHWAY,0.005078426402433426,-0.013682097431409992,0.049812347792353925,0.0957334525046906,0.09515500212805915,0.010579183222406677,-0.01757422123859051,0.22885105497600744,0.5105181427770222,0.052989491219629314,0.03381252202074873,0.08963764043016807,0.016838396988914362,0.1190358181081597,0.002550863551705672,0.022992026697018487,0.03901065894857724,0.3071645370247436,0.00984306517646454,0.08906654627162484,0.1759059890926541,-0.030526139306854817,0.09173035469909627,0.15721666394856254,0.10691972679343184,0.06499367435855856
HALLMARK_PANCREAS_BETA_CELLS,0.12350717759623885,-0.09438669740382395,0.09657498385369899,-0.007421005635824597,0.12110601703293394,-0.045361352119960695,-0.030859504857383528,-0.16905527283103933,-0.1434760083993712,-0.07674245345401201,-0.019527095283081147,-0.09003682734603297,0.028410452988813263,0.07471752448544057,0.03000975570852955,0.11685126365415012,0.019237583849508143,0.2310365315655714,0.012048540709999871,0.09774799121849088,0.1722594489666474,-0.03551072732542469,-0.03128459801132504,0.14108292194244818,-0.027082290478954302,0.15319977346160984
HALLMARK_PEROXISOME,0.08427220499594756,0.02361303528002888,0.14662210939475923,0.021713177356334358,0.05244343044051865,-0.014498433152603948,0.03130209852556803,0.16979591136262234,0.2603406400509368,-0.07327403753949903,0.0043988664760451855,-0.020750123025431957,0.01264211957009611,0.04869054609273112,-0.004741563154132834,0.010171899219472164,0.00022662050899123568,0.12321017346593223,0.018339826376611457,0.1162450064799414,0.04328760000733088,0.04283642981932278,0.05960054029873478,0.21969339421093023,0.10730224908203537,0.03481034887462345
HALLMARK_PI3K_AKT_MTOR_SIGNALING,0.15295118449061607,-0.06172986796952244,0.1816016258932859,0.036856431879014384,0.08438712262273505,0.14505285629669007,0.06288784655772181,0.04777923974587936,0.24608591782857211,0.08913378143703934,0.02612067529132058,-0.03942721800267083,0.0868328324143985,0.05293734254511522,0.2330861058226102,0.036570679358254206,0.1425149563514382,0.3039902015298823,0.0856665873870718,0.14631987219001857,0.12076689798774523,0.08205300119377278,0.011246374302031526,0.35480223059076543,0.1505723983763276,0.20559880394821206
HALLMARK_PROTEIN_SECRETION,0.14723379897353114,-0.014650282458718683,0.17291060131730232,0.075531366882331,0.14500452665561675,0.07239075649368289,0.01149429902838091,0.05035667889721046,0.4319549395805425,0.01705231295696298,0.026380137091393335,-0.036625728377024394,0.01010884276373483,0.07580789992878911,0.2369525589454864,0.09379590179940359,0.08821527757468321,0.3442970674893568,0.07485578964782535,0.16988008630910012,0.1952306485993631,0.03676092228710099,0.0681565770097554,0.22546551928880504,0.1502870398564919,0.16169291003472416
HALLMARK_REACTIVE_OXYGEN_SPECIES_PATHWAY,-0.06283712779543409,0.05898198566950654,0.056966171830879944,0.04223706957837683,0.057996561660797,-0.03519185164076172,-0.028765433104954437,0.04877745809298417,-0.20149862143313102,-0.03659199720207129,0.0005912538842246991,0.13070320986616926,0.017404559881792982,0.08438024195501177,-0.015177642441543614,0.055628630689708074,0.0899449254131088,-0.06744533200687716,0.022364021118119835,0.11569087197584225,-0.1520902640732008,-0.12822942045139601,0.08259858112399902,0.23715127802340386,-0.005228506585460352,0.06727883048346345
HALLMARK_SPERMATOGENESIS,0.037432554309427324,-0.11588531498269594,0.08941325221421922,-0.015528180113378533,0.06320556254216891,0.015901904561634806,-0.02491052419371644,-0.0009419660563971905,0.13548048685474576,0.01594109140846996,-0.009937832321720031,-0.13349444937364566,0.003102405722038823,-0.022810838372149284,0.09329114252417943,0.05850348854327978,-0.02606097371172013,0.11727724045170751,0.024835010277904558,0.11559616399641393,0.06555163280282916,-0.006673204090552617,-0.0006019543742381371,0.1212684786834269,-0.024956521738711438,0.20953378257321245
HALLMARK_TGF_BETA_SIGNALING,0.10577525456368891,-0.012731492939120355,0.33758375479584285,0.02872869717749904,0.11743886566147477,0.026344587776272015,0.07438048631678114,0.3085286437176686,0.5144580811073904,0.03275552165128206,0.018882614848380185,0.042766295864772264,0.13648073125191587,0.1967090199493354,0.2651122166181701,0.12417890053755055,0.16979403852101987,0.25204268563863325,0.11058847178451081,0.18087039033753294,0.11447020416885426,0.1701268930961773,0.053718970891364626,0.4518804881361715,0.2260934139170429,0.14197552375572264
HALLMARK_TNFA_SIGNALING_VIA_NFKB,-0.008944574166446805,0.07542228335193181,0.1680843122180197,0.13845304017465945,0.012547082633084506,-0.03190656172732468,0.1774668253275415,0.10275793231757159,-0.23639035694029245,0.18046532995749268,0.06465595839365253,0.19590729429547327,0.049478838026513636,0.03318207732107737,0.040627000823365414,-0.04087729604782594,-0.058230611745486736,0.08472174678008956,-0.08633794741621233,0.10949895230438521,0.10078496481939528,0.07331815763408271,-0.0962579550576314,-0.1674643758153631,0.1585261572030227,-0.09032551718674965
HALLMARK_UNFOLDED_PROTEIN_RESPONSE,0.09636462307740491,-0.003596869902430248,0.16649773144557667,0.019843872771466035,0.04700341889077139,0.060413282864382085,0.06927108425101289,0.32126940131511306,0.48054811819107063,0.1147357073810587,0.06761312030272233,-0.03856000004939551,0.0330021188220078,0.10156051110502497,0.1753847665859784,0.09784971388874512,0.1646637383813961,0.34722894110072156,0.07349305323064127,0.1616150286748378,0.22167365770148892,0.10243955049478617,0.08673356659694256,0.3138368443971513,0.19588555657996887,0.09705361330389088
HALLMARK_UV_RESPONSE_DN,0.13287167063129693,-0.017422531469200607,0.2945603554982847,0.01588297022623203,0.18386995142805307,0.034397619345184774,0.0011455553936437581,-0.1184440365547337,0.07094361793173179,-0.005347555916388498,0.058233042542262865,-0.11934215255697793,-0.15703622577916823,0.05065190148429298,0.33481598692682774,0.13495620812446366,0.14811104625370639,0.18676455123482819,0.10347371195869115,0.1759074028105865,0.1176070967886487,0.22404839693590356,0.0475823944337597,0.3784879388814923,0.16918487175029007,0.13152542400459777
HALLMARK_UV_RESPONSE_UP,0.06204761655857238,-0.03520324384234302,0.08765588631350558,0.0313389913782517,0.08505768089504585,0.01936430171363177,-0.02111863890357322,0.015472708567718596,-0.2388426737329418,0.07119023787857151,0.015783517911228874,-0.07309654190363574,0.1825171783326435,-0.0079006011046989,0.026711349720223414,0.16364298998012447,0.04518095233631789,0.14573663512398058,0.017341874492459334,0.13299912241950085,0.13224877101013308,-0.007809920592146711,0.03016526545053818,0.14132653725482086,0.09359731840992085,0.14051613651626635
HALLMARK_WNT_BETA_CATENIN_SIGNALING,0.06692722340763149,-0.04464443261952081,0.200383009874348,-8.182122585838157e-06,0.11240197210182366,0.09332444285686498,-0.016461948749582612,0.2949563492274668,0.42690948869440637,0.08887979184848249,0.03392462050305193,-0.06675585974874318,-0.043509883408925726,0.07856590533195244,0.049573601220282024,-0.012346255470324282,0.02877317454511506,0.09823803900437182,-0.028222270372445783,-0.0022286645475845758,0.15012373389170205,0.0666527397415469,-0.03462235298021566,0.2405165114528671,0.1621663887439548,0.0898556669926372
HALLMARK_XENOBIOTIC_METABOLISM,0.080200379171008,0.021219044089428863,0.08524437657311194,0.03867836134676896,0.1817472336165234,0.003616766204232899,0.01751908783290075,0.1012521349459979,0.2772773472489417,0.0365218071010439,0.027266463626987203,0.09179025821298244,0.05365804658292783,0.07717525617033436,0.048075097957153104,0.124985097644753,0.11585978608908105,0.21140357494095732,0.06291277302794374,0.15286817123302945,0.15606281211523876,0.01763293085842711,0.04098894632557371,0.20747890248433282,0.10984020319455699,0.141995128764963
