,MGH258,UKF243,UKF248,UKF251,UKF255,UKF259,UKF260,UKF266,UKF269,UKF275,UKF296,UKF304,UKF313,UKF334,ZH1007inf,ZH1007nec,ZH1019T1,ZH1019inf,ZH8811Abulk,ZH8811Bbulk,ZH8812bulk,ZH881T1,ZH881inf,ZH916T1,ZH916bulk,ZH916inf
HALLMARK_ADIPOGENESIS,0.04796761496500579,0.05107115150717821,0.13368705335549552,0.04834362349554206,0.12838349002215776,0.060836570537877895,-0.0012255091659200857,0.08450772598418026,0.1940097296113089,0.040859405509636626,0.03464189929957668,0.06076204638632549,0.220031699948646,0.04647056494405392,0.23618052091814531,0.20534518143035685,0.16468930305597626,0.1471232382429443,0.21397001451193354,0.1572467890547386,0.09117600322677841,0.15046070694857683,0.046635281056489244,0.39624361303098815,0.17563025404806654,0.0785312014606895
HALLMARK_ALLOGRAFT_REJECTION,0.01924158108438619,0.009051278259458038,0.08377695965801345,0.023458422501305864,-0.007336929901511412,0.04625163171940295,-0.04326950897987088,0.1609975762478613,0.33321723391069785,0.02069541933481719,0.012772658974732197,0.09105895891198396,0.16191799611620575,0.027771326877662532,0.15986325990831032,-0.040282940366807005,0.14128233540061583,0.09872417557080256,0.10925004565379098,0.10604657337905395,0.02428162390681052,0.09470460910082015,-0.016349477507426803,0.3361770822740519,0.05754208979456209,-0.012813799488123879
HALLMARK_ANDROGEN_RESPONSE,0.09526394654430062,0.07862176024198411,0.16991463293873113,-0.011767501370347344,0.04922714871530223,0.025823944859670586,-0.008729091943135335,0.14728596155327756,0.3092044518857011,0.05493532573713795,-0.004819888458842465,0.1536913501631299,0.18474512915110405,0.11572920899018455,0.1856628791461872,0.09356017800227932,0.13927548111766827,0.11603088947483998,0.22519237367975306,0.14847141358510532,0.08803622029872803,0.13873213196366022,0.05244222126591485,0.31704733618778747,0.21108980047277712,0.09218375163975254
HALLMARK_ANGIOGENESIS,0.006479919433823165,0.06915734109808575,0.050261526436848725,0.09856838481077086,0.05390101752693337,0.05632710954896932,0.06567576509849873,0.13797614842588185,0.32140362632895636,0.10026832459678289,0.08211588493908949,0.15815879246133838,-0.08907981790612032,0.11881788747306159,0.12071100354869092,0.20309981665952012,-0.10204534650752137,0.008473314423813296,0.09036359100521932,0.0242304873715113,-0.025990666906766293,-0.04768698873434283,0.009641404375265734,-0.1622115871896518,0.19690130585241927,-0.0032748187343176315
HALLMARK_APICAL_JUNCTION,0.041228426175465786,0.08935623676707065,0.22470141519513187,0.005500083976383104,0.13658214765712845,0.11784590523017484,0.06903031114887227,0.16745129630166894,0.32220027841842824,0.0839155471296819,0.04201723323978862,0.0005129756422151172,0.20531504986642346,0.13506941511435003,0.2769429554892704,0.10248912302653153,0.18899558656283344,0.18344486232232185,0.23674208538821045,0.17178458158831836,0.09156055980913436,0.12449547071747888,0.0008245685308808886,0.38407599659967595,0.20722504187418786,0.08552256718193842
HALLMARK_APICAL_SURFACE,0.052503146045732335,0.022613261956640464,0.13043287388505326,-0.06974134904051862,0.1227980299049062,0.03542647132161292,-0.0025992844246297076,0.02719345684563642,-0.19145716954612152,-0.023008324930956177,0.029319022338191916,0.011505630162731628,0.16867228856147815,0.18527971331284576,0.14517935725817496,0.14514600986004972,0.04495896621461551,0.18945326993144612,0.24258370054603393,0.1691101599105558,0.05324328014668784,0.001726629119745501,0.006729085892777208,0.31750135604143576,0.189061813770004,0.1158833081337723
HALLMARK_APOPTOSIS,0.05413139441607518,0.07094160555919667,0.11275618776109335,-0.01394652216513877,-0.012542115527953895,0.06763387590173661,-0.0056156796518537205,-0.013220026030702972,0.05994752047257469,0.02949763546632604,0.0056242584849562505,-0.004869895411060113,0.02794109572212755,-0.07299027335747545,0.10435706107675011,0.028396774203244247,0.05597522946849738,0.04592468506903456,0.004927117663366177,0.07390626257997059,0.05481420695535784,0.09213987960191068,0.008217391011298113,0.2057141883047313,0.09121187450369267,0.06281703522288787
HALLMARK_BILE_ACID_METABOLISM,0.07307625011543316,0.056888547617001343,0.016043343365514523,-0.07349391716646159,0.13159023448439472,0.04222542897428598,0.06999836297387589,0.13932986931626465,0.3532449960971485,0.034751061764863644,0.025720478821622105,0.13216107393493115,0.1318947242244817,0.12811536631345372,0.16827794864114212,0.15793586302160362,0.08721566594021933,0.13395617697892231,0.21187693112494696,0.09697397604439552,0.09405683653120087,0.0743685544582574,0.0011497193505234486,0.31249987082797304,0.1279205557385917,0.023969060401241065
HALLMARK_CHOLESTEROL_HOMEOSTASIS,0.1255879297353813,0.08139227922059147,-0.020559271713353207,-0.016695163674224876,0.15340917518516783,0.034315689366927395,0.05806378193574078,0.15484125006559699,0.19806027937747553,0.09717257879211254,0.05984368401378785,0.2001754315988731,0.22373013694731073,0.19049726284387597,0.14524626740405244,0.12555780011360637,0.15406825684103367,0.08603852644608385,0.21058890475028405,0.10163298182429108,0.040458310591401814,0.02913198374910822,0.01325728569178983,0.26969798070488626,0.1199001502813536,0.10949481826578886
HALLMARK_COAGULATION,0.026435003604748257,0.05382209399452506,0.20764222616284325,0.0459967534337758,0.15595761279129264,0.16083235336472798,0.06643507412743727,0.16988794106243957,0.3571765523460846,0.08403795940927798,0.05614558572104134,0.17136791996706868,0.07765766475133336,0.1279242406375658,0.15769306118874996,0.17771965271036605,0.22398453945861696,0.11667654419329723,0.24549109456088955,0.21418559183132949,0.038574377417179444,0.14540394868397852,0.057660234417768214,0.33941903900730874,0.2198141971249683,0.10944982238944531
HALLMARK_COMPLEMENT,0.044767768777985745,0.048203178014035196,0.07849177717693959,0.04271931191774835,0.13537007701064205,0.021292239570254886,-0.0030957259488014143,0.09308658546321597,0.27614127566578567,0.10735936409487103,0.03236829130704164,0.1025873574330055,0.15548171103727562,-0.008174465481207122,0.14953316327811647,0.17297704038802655,0.144669798460901,0.1100935515112494,0.2254901117602655,0.1410088466904961,0.08651663929042717,0.09350582148388022,0.01599253406190625,0.2895625053032871,0.1881089135714997,0.03705450300424483
HALLMARK_DNA_REPAIR,0.1419778677009999,0.0932618417692374,0.10202213724836726,-0.024437977432361396,0.0953861342380212,0.0866009903424567,0.01957582166436658,0.14942708936963509,0.2963239070424105,0.054125688911304086,0.058334414605137955,-0.03954250944403687,0.21757286618670096,0.14217976897801163,0.2506782193504875,0.10607157167537042,0.20939131657210727,0.15896269924827006,0.23124920027547827,0.14857659395325903,0.1425353714734489,0.10975314764648206,0.008335365583238934,0.36912475269476186,0.17072653278286948,0.07502514888158457
HALLMARK_E2F_TARGETS,0.07605163980316103,0.0792933484404255,0.09158357371435992,-0.036327364672308675,0.08740298510159623,0.063921817202676,0.011187794269940645,0.17232825729751358,0.32634682411689225,0.04173948176907846,0.04463297204432969,-0.1154724295067557,0.1569123015053207,0.12223895850759513,0.12443808577054068,0.16511064271849782,0.05343958460465817,0.1266167061478722,0.2377127285210908,0.11832800296503145,0.0938260326808279,0.03986020612894974,0.020608196603038854,0.2812559762657955,0.1505333215236112,0.03322970848401484
HALLMARK_EPITHELIAL_MESENCHYMAL_TRANSITION,0.10259504100543594,0.10871373067293554,0.236245957466806,0.030645040855437032,0.05074851650675966,0.1293622171166744,0.0741979121020681,0.1818080922660571,0.32071176432995496,0.09558535879803869,0.04331752207096229,0.12299158410998147,-0.06930829475011617,0.14056056783113258,0.22126177514111042,0.01179501444938484,0.16482230817727206,0.10806916116239725,0.17361546649125392,0.18548075665426142,0.07136875999135177,0.10572971268836277,0.08602587731586375,0.21522984650421995,0.24141294199274752,0.03992836533361062
HALLMARK_ESTROGEN_RESPONSE_EARLY,0.032664096706047786,0.11148113416169658,0.1262461312803613,0.0342830973677008,0.09909209848042408,-0.014539544192663246,0.028834012009090384,0.0058305639190145,0.2106783168207223,-0.024672082210773796,0.016698320272876026,-0.01854350524544975,-0.1668229632731209,-0.09815328604487904,0.11597537869612383,0.10528898353423045,0.07172357343899001,0.13193602997937962,0.2036723232073646,0.15542857022307902,0.0723466014730169,0.09841454138698999,0.003665370697953536,0.27299265990012583,0.1473057175193424,0.06618335040680498
HALLMARK_ESTROGEN_RESPONSE_LATE,0.11235794278093927,0.0003309502411174154,0.06416639518742302,-0.07153495419223248,0.08899811049423378,0.09642182744041618,0.028629036131178617,0.08760222516923367,-0.1660557306730484,0.06720760062728692,-0.04412449157045807,-0.0751315755139339,0.19034653669305227,0.16495071044994347,0.012997039582441807,0.04536327499974719,0.008163290918081833,0.04724808788348489,0.24133130941944764,0.10207794047889572,0.040765447302480606,0.0014125839450592004,0.04928166960703698,0.21149100427754314,0.033550803166844334,0.03958870266674001
HALLMARK_FATTY_ACID_METABOLISM,0.055371192654171085,0.0023113411518434833,0.04849916853542024,-0.009586701375908632,-0.053490011081804484,0.015192711979353955,0.029671769830450202,-0.0388679680869629,0.2657245031834744,0.05503455483046714,0.0014447073957404965,-0.0025095832414579597,-0.22178210519903943,-0.07731070029149731,0.15625709264369317,0.04797738271131269,0.1519063034039801,0.04980868667215499,0.08757196866216496,0.06617500619267484,0.09346514213198201,-0.023623755389917737,0.018215408371098574,0.09348069055541629,0.08720664705242774,0.08258962283766381
HALLMARK_G2M_CHECKPOINT,0.09518843043012223,0.03731530281126968,0.06818956393509693,-0.020067561345798703,0.058100247112385386,0.042223913387995145,0.04913386229822794,0.17089271678219148,0.32237934423341724,0.03655437639537471,0.07018382003272526,0.05635226244783898,0.20698133970709703,0.1517113750609416,0.2188253282557124,0.12554345800547845,0.022113762850570616,0.14645762055998726,0.2219157411144904,0.09531663268188197,0.07848368182134165,0.011682688620333578,0.020287307590592843,0.2448933821294214,0.21620145714260985,0.12706168336692897
HALLMARK_GLYCOLYSIS,0.05279260213221435,0.0449732653932039,0.01786457073517743,-0.023753678039598686,0.10330079823947784,-0.006922129096887829,0.06923832784080422,0.07381400082537463,0.2396913077825952,0.07525010767735697,-0.01891342283994216,-0.11240303828876733,-0.0068877105130542675,0.08379852133675512,0.18585023496440548,0.1653495410369347,0.06755443104140604,0.11551880988403654,0.20935655401306447,0.14800583270971213,0.08858930606804652,0.03327499470165668,-0.03795484583280677,0.2943563731486191,0.15701266531437696,0.10071268193002886
HALLMARK_HEDGEHOG_SIGNALING,0.09318042138705293,-0.03464191001256643,0.02555670888101872,-0.04154467414144705,0.08351888869259907,0.02586860672701587,-0.062461730721133986,-0.08104186166342005,-0.2663290251190851,0.0005215928524698579,-0.023548395523684422,-0.0986149961524514,-0.006622136087466603,-0.0552462835761248,0.11334622552726184,0.06614038788897776,0.11183144652606734,0.04274627298293419,0.1842629453431185,0.08064877604877388,0.06175277474316357,-0.0034687620115000624,-0.017631973803014917,0.18174110122459405,0.08802986888806776,0.04720979311025717
HALLMARK_HEME_METABOLISM,0.08156121562532123,0.07539835713190927,0.162539538931449,0.02836839571093551,0.07798315097156172,0.08695911406085548,0.010277687497514282,0.10673564705255222,0.2751743850929346,0.08468531936187683,0.020899128758806916,0.015057208238101699,0.12837048411756016,0.09401779090063073,0.24454193037876376,0.1227384589659186,0.17845752445140808,0.1554728700802931,0.23380395720501304,0.13597680181724137,0.0667078035287954,0.10766377202272662,0.03081184046246958,0.34374144273104823,0.14867601708548586,0.09556094415074706
HALLMARK_HYPOXIA,0.005826418435000513,0.013395645314783529,-0.07606019807654217,0.04036452484126671,-0.05116500604350505,0.04090672544596681,0.06054821279517417,0.07144859765775716,-0.13481783607865008,0.05044952151453748,0.02871159169123147,-0.032050283736386825,-0.19434111941588827,0.09497945517912139,0.21326744835003741,-0.07321058938521872,-0.10981540720279065,0.033381005960461535,-0.023010529140710306,0.007867919168824873,0.03649957207542586,-0.06114653139731316,0.0326844831027156,-0.014293502801306297,0.03932593445622661,-0.04225750925181816
HALLMARK_IL2_STAT5_SIGNALING,0.09800002592638811,0.0891754498163081,0.08528312915779747,0.0019741065499069834,0.0919667719686036,0.08513450858628636,0.08220613158544367,0.11698932445629977,0.3110534505200805,0.10318471456103649,0.010659490888800752,0.12265357348634699,-0.010309204524131293,0.07041535260850128,0.17833541853585172,0.10545718165316165,0.21953847526677223,0.1862801484039168,0.23225915383789267,0.1609933090225892,0.04690853406802556,0.026927292631284058,0.058667069275143195,0.27357702156321084,0.21989064563000416,0.08990821481515818
HALLMARK_IL6_JAK_STAT3_SIGNALING,-0.07171207259743442,0.08388021091147439,0.10962435148388552,-0.024892527229118604,0.1964154684170753,0.03571734958637802,0.11278655517057333,0.13125793230555316,0.33639521837407554,0.026565720257802305,0.033363076757084484,0.11409521212150564,0.10360941454479551,0.10639244524532795,0.14593922211988883,0.062089204100310186,0.12805342302439357,0.04265476123880019,0.17184213520125508,0.11931194957912936,-0.03648901703055872,0.05102527737404608,-0.0038788029139732016,0.22503989954413214,0.20468877960104576,0.015750677799024816
HALLMARK_INFLAMMATORY_RESPONSE,0.08653860360216441,0.14038784055233938,0.13131567163566113,0.035780985737030924,-0.002126331771425895,0.04292253756368588,0.02018520961734927,0.0029704438756325818,0.22182739611628816,0.0708735213553447,0.039800322301687736,0.07065205336670377,-0.05597831144576166,0.10045094709998546,0.11779111912720616,0.10097436118817733,0.07921197904275544,0.0843342894865101,0.15320675407068537,0.07518435242259909,0.09551982410189176,0.03531345800471855,-0.013331445695092339,0.09652100869434199,0.17638893572328843,0.11133276022205899
HALLMARK_INTERFERON_ALPHA_RESPONSE,0.04089606151265502,-0.01272832731112854,0.11500714112092578,0.03633767587879259,0.11073917899808297,0.12269222577759847,-0.029401085575893438,0.172857420127764,0.34453882267117897,0.007620948148236143,0.01659744976521766,0.12307181803576007,0.1725932555408724,0.17395486416304415,0.10654706238378085,0.07809566770073431,0.18418085642028825,0.09724767650043507,0.22453604935713398,0.08290216344036755,0.046369842831053464,0.10574003975484969,0.04328764289880674,0.39288937312806615,0.1357664996754511,0.12563017273690633
HALLMARK_INTERFERON_GAMMA_RESPONSE,0.0278713904052783,0.11441596064388651,0.1373495224306045,0.07133098301597487,-0.009080817171201941,0.03918135842718532,0.09378786689365025,0.06201241887133348,0.3096051546273228,0.0391727345153214,0.06696129453149667,0.06042032552334865,0.16981134828479494,0.1070552254333171,0.2017726113177977,0.09296384782783979,0.1645341135920463,0.06718856750931586,0.20424901252441646,0.22874716074650872,0.0625916561567434,0.1491781597386692,0.025788047208632203,0.28964538341411866,0.1680690800204665,-0.009444910003465104
HALLMARK_KRAS_SIGNALING_DN,0.020957354468445176,-0.01963411583292445,-0.020199710467564663,-0.001877026976682221,0.0653319292069399,0.02442110669269204,-0.01676807250027128,0.0422534065625982,-0.07251349200703372,0.07159945039959195,0.07335592195632185,-0.04127429466562619,0.10893053853146746,0.13049252526885569,0.09501682521622225,0.16621294068220985,0.14999048673590834,0.14894585288507917,0.17951978907925298,0.09377805998208907,0.07634796539141438,0.048310627341383,0.03443633655503804,0.3282247223784916,0.06578084029332056,0.09790230693303822
HALLMARK_KRAS_SIGNALING_UP,0.017618895297746396,0.039388903865817136,0.09453719035428522,0.050922782618811745,0.08852572325211143,0.045439718539034765,0.022182149784776024,-0.06877902393942434,-0.07715088786255338,-0.013860807973900584,0.02795501026093235,-0.004766492712353253,0.1337412391267846,-0.05699569779262477,0.18619281602276216,0.15441525830076822,0.10057159111530174,0.13115528813523875,0.20156096004965443,0.09893558136294675,0.04640976640943614,0.12062931276682617,0.021496190852786028,0.3713127587283974,0.19677312207995906,0.04108455268642555
HALLMARK_MITOTIC_SPINDLE,0.06333827967273942,0.04320778056627024,0.18806007483892778,-0.028423998423795723,0.13524401372112194,0.11772060435592814,0.01825020281360782,0.17152071478040795,0.30706573324148023,0.09602247028457242,0.055658177104312916,0.033227416488438896,0.18828486307535036,0.09584611304481612,0.16653431136375219,0.13536895449346337,0.2085774550634297,0.18058126716186523,0.23836286240299867,0.1390107355709261,0.09331544568175812,0.08915979303007199,0.05994686490681265,0.3786428424352378,0.2130440258047448,0.10772393503095098
HALLMARK_MTORC1_SIGNALING,0.06722475019339576,0.04927472206351164,-0.04140732727834123,-0.04269203314320603,-0.04100751506705445,-0.000920486936195396,0.052544755081657145,0.1213326548080055,0.2615990310106131,0.045770655094877,-0.01483631774526717,0.03509723420806209,-0.010733066158507634,0.13145209770608607,0.207299246729366,0.03477902021346121,0.02637571187311116,0.08194582894791996,0.10535346860109945,0.048369082572170014,0.10664773265762731,-0.04270019283258573,0.0016240220268388015,0.132148582461797,0.12915905240013942,0.07446407822205325
HALLMARK_MYC_TARGETS_V1,0.1383254039469784,0.08549864424874636,0.048863512626593913,-0.03362955323053311,0.04118927682170383,0.019291007353125146,-0.017167328588412484,0.1709367856062585,0.3031255922666704,0.042297626716141394,0.06849479572813733,-0.00584026725621384,0.19302203974113957,0.12895295125436773,0.2016535611505296,-0.05659507951998956,0.15567429487595758,0.19102572492990996,0.15820067596421056,0.0831531919798899,0.1264588103152463,0.053628728493659766,0.03430668189652914,0.26114040942359834,0.12991722043857645,0.0995401423288409
HALLMARK_MYC_TARGETS_V2,0.09731438733806083,0.1027823452640993,0.08046160389921904,-0.01499294175138986,0.03953344918743066,-0.01978985479035437,0.045349708683156124,0.15178039158950313,0.09468692247286015,0.025784665229518777,0.026819847810032754,-0.015828370430193046,0.022557166146205683,0.11217490759753823,0.1015481007841452,0.18561268234072228,0.054851419331709304,0.038435121894661625,0.12479142101688628,0.10630156694519034,0.0678971572091006,0.04567155740448804,0.00218240993123793,0.21019050329103706,0.1354657679112356,0.03234980523896614
HALLMARK_MYOGENESIS,0.057136680842052895,0.0492455943547116,0.23688011475783155,-0.015379634592671927,0.14361879631950586,0.1460971353210289,-0.023493258695081783,-0.009273951128242107,-0.09836998130341133,0.039339673680870525,0.08589900514119699,0.035105683361390076,0.10626273464276491,-0.008645718415313235,0.18343103429877822,0.14529798726780704,0.14377724522151475,0.1492385751298358,0.18804739825834985,0.1469025112383619,0.0408519492331909,0.2137154981386541,0.02188773014496092,0.3595318759258212,0.14407785618201502,0.01952302547386322
HALLMARK_NOTCH_SIGNALING,0.06479239384181495,0.061607267800409295,0.1841223359249088,0.020313833810835336,0.08512030780003234,0.04650653762096512,-0.045279075021563496,0.12809936377874492,0.33354794629633866,-0.04230557248170271,0.032383159104774246,-0.022067193160472627,0.214740654713822,0.1412980468144877,0.22815787031393653,0.16061651116878742,0.20340114032284967,0.1093709082631304,0.2340242431454709,0.12480576951458712,0.09933496983837274,0.0963329881453231,-0.04622816451715478,0.3412696205429308,0.11066412301280897,0.031493306376012345
HALLMARK_OXIDATIVE_PHOSPHORYLATION,0.10222110425354096,0.05576197246978947,0.058026055630963615,-0.02237831474427796,0.054785151249390325,0.03062868296996841,-0.028505394439425638,0.06152417958354554,-0.14414386755999856,0.019969445721924294,0.027775309747282644,-0.10839553084926841,0.20748959289726185,0.014844754974018085,0.1698922176584473,0.05648570219895012,0.13492014111248682,0.16610229943273905,0.15877929555266562,0.08410427224854325,0.12437496343635487,0.071852665329391,0.0390655138109704,0.3292003568865955,0.009361301118778696,0.08919230540467991
HALLMARK_P53_PATHWAY,0.055431098459787394,0.008977415879401048,0.032624231816583825,-0.017858052841197267,0.08795022064294036,0.05906964150499821,-0.04703133104781593,0.1399414165565655,0.2787531730172841,0.025161743314004073,0.03574003988806278,-0.00834597847463718,0.07226962356273747,0.06868415119351916,0.18914642103363755,0.023103099725239905,0.15798306021268485,0.12845212830273012,0.15189247927232505,0.1427395124274034,0.08816070884210586,0.03617612565934935,0.04654491706967473,0.2980357074869109,0.127166867354038,0.04128828502258546
HALLMARK_PANCREAS_BETA_CELLS,0.14877666313391708,0.0404781484721706,0.08203571244487652,0.004544260316105022,0.08637076691892846,0.04081086683654672,-0.06527766859137281,-0.08380120207498415,-0.1818505059778757,0.027734396475099475,0.05299369769401566,-0.0986608254278747,0.22919111833291808,-0.007207338419915075,0.18234724554055415,0.1650795194755983,0.09144025325736094,0.16774568062341308,0.12752307864938586,0.0857832701676034,0.18182280857731511,0.05001597981602138,0.03701086693397766,0.27691160944422427,-0.048030580281507494,0.04751662437823247
HALLMARK_PEROXISOME,0.001961735178104213,0.05168166577500284,0.06614366723898152,0.06243304537524174,-0.0031830713052639777,0.04261530605366797,0.011403677494721801,0.09279362229747232,0.0938651057337088,-0.013375232205012782,0.031235384441524336,0.010788989074929959,0.08883052998290958,0.004218535524339683,0.11189231609729854,0.040945250553267094,0.052556147345147415,0.1066341459241226,0.15051878390892917,0.0968711629553232,0.03659694917713613,0.02153470175519674,0.020289290356507814,0.24828488650995903,0.13391750194845592,-0.027814014234321196
HALLMARK_PI3K_AKT_MTOR_SIGNALING,0.032289179939921156,0.04162288900955808,0.11942457754239996,0.0029169144911050794,0.021919268981385527,0.102948126968883,-0.008324489235373933,0.05135652169822477,0.1037128394676317,0.07173443365894651,0.04310474752913577,-0.15221288180227996,0.19889177329020066,-0.036897248954395785,0.22674525795444467,0.11582585489999253,0.16845770357833278,0.17627812650717753,0.1940652757220855,0.09578638066246567,0.08204880904807785,0.08529548797995391,-0.015542696893748622,0.3709396649882142,0.15521262365777372,0.08959242788122247
HALLMARK_PROTEIN_SECRETION,0.09969924222790219,0.08528587049548227,0.13630133194329253,-0.032191706090035195,0.10097699547375878,0.07616500242959613,0.026688674208270265,0.05928555545906498,0.22772478104920735,0.08702267366910334,0.05526282586557585,-0.0733369602472602,0.21120931196065884,0.07959974278874261,0.22686277677101346,0.14867835190327713,0.11373262769031793,0.15779315586141796,0.2703528337769276,0.1550840400282844,0.08803925035335876,0.08719181654168777,-0.003008767509524856,0.33325369215966905,0.16498148269870017,0.11211159496968007
HALLMARK_REACTIVE_OXYGEN_SPECIES_PATHWAY,0.04064006001725909,0.013696785353765716,0.01280116837992314,-0.006475934023800226,0.05349186116981877,0.020919788439180707,-0.03077008206565108,-0.034681267267166194,-0.12024403269378836,0.001941066202002811,-0.01010337760837572,0.1339613880321645,0.14900482966364254,-0.04380451970290349,0.029735437527123595,0.09618588885030493,0.15005081369830142,0.06005383039251386,0.12391186445087647,0.12994918928084345,0.04564202998970693,-0.016107872223916752,0.03373587321714542,0.2980525406263182,0.037922903154367055,-0.03540216450567226
HALLMARK_SPERMATOGENESIS,0.028459645380583865,0.03723690830655171,0.100373639883438,-0.043620030024151366,0.14439294031711083,0.07225418682583981,-0.006065345742044596,0.030352743785043334,0.0349276404703703,-0.003814784686110622,0.012670198584879815,-0.01980018164619349,0.19166965176980527,-0.003098676287630105,0.22693390121871457,0.1376643706168808,0.17173854792294088,0.09622859556648047,0.1891674564620363,0.07892571071165934,0.09644636638382735,0.06670243950243615,-0.0030410159436591675,0.312020382343126,0.06310331349368573,0.10638593315603713
HALLMARK_TGF_BETA_SIGNALING,0.10008582746757032,0.05430393613374706,0.20517211853528355,-0.031179648986788325,0.0755351167880856,0.08092432894979319,0.05385537182773443,0.19012958785323425,0.3094928129836766,-0.0004281923267703645,0.045256350137393944,0.05090221206455261,0.2283263982030771,0.13823833549099346,0.1942227992034041,0.03051545166783265,0.12764987091993873,0.13857720732944342,0.23211589087884074,0.11148147669318291,0.06905763672789286,0.10988681651551477,0.011915807807834512,0.3147100183404007,0.2289255454973103,0.07306851715802144
HALLMARK_TNFA_SIGNALING_VIA_NFKB,0.048572857999875096,0.08690434441343903,0.11495763938251724,0.010485305346010403,0.11588199901145053,0.10383190828930355,0.0848267988458913,0.06408412190656423,-0.24164204854806554,0.029430048051513263,-0.017582177051086646,-0.013023143669509693,0.09729765911146622,0.10069212294525944,0.08206835353267293,0.006430174067758386,0.11246724362364476,-0.05006278554408961,0.04217944306789307,0.09834812924546263,0.061649234200338826,0.028225287021188594,-0.010487498451051116,-0.030680803786132534,0.1310563258089197,-0.005560417086458593
HALLMARK_UNFOLDED_PROTEIN_RESPONSE,0.10311919617270002,0.07070053415659427,0.09526253469175126,-0.002652770936120648,0.0651881824915503,0.08443394076423419,0.031033734361897363,0.17557872474833408,0.2617666028292951,0.03800415604942352,0.05775458936741939,-0.03626585444150673,0.21426152528995274,0.11399258478494216,0.268103536142826,0.13129255164289771,0.19293236178341536,0.18740390435897072,0.2449813835251616,0.12523883564084684,0.14663007545988782,0.05946230335478378,0.00622945167261713,0.32397293017876233,0.17379808590310095,0.04293121463323606
HALLMARK_UV_RESPONSE_DN,0.08278458286457453,0.01821340265943413,0.1586897552152421,0.04105437570818404,0.1800864993831867,0.026375721537582886,-0.04103428159201902,-0.005285256843661753,-0.0549175050029566,0.017868694744136434,0.07212176486681532,-0.07608210458923265,-0.07037508888197919,-0.06114933269416303,0.17535708653354348,0.054500421337202634,0.08204457854474274,0.12257062811078287,0.20711307219760702,0.15315926250969575,0.07352170548818138,0.1569632462276868,0.0113940099112111,0.24466837099600797,0.17005922595941192,0.03604586659323498
HALLMARK_UV_RESPONSE_UP,0.037582564622583664,-0.008227979170909831,0.06575661515079549,0.003693512337242002,0.02517876998418012,0.080189557662252,0.012706214409801506,0.07045260839126533,-0.22470425530246854,-0.030195125782120764,0.019002358994479406,-0.07218426896651545,0.15488522753166326,-0.023691894665670746,0.15243155321660015,0.15974085324397305,0.08923115809220979,0.1487452276740164,0.23369004354510606,0.1773185227962956,0.06525482496504252,0.05274464515320242,0.04948150734181205,0.2837526754163157,0.10789798305979423,0.05929874565082085
HALLMARK_WNT_BETA_CATENIN_SIGNALING,-0.048753005247527355,0.027268869952308976,0.12511018961003312,-0.020951280004630448,0.037143344959857966,0.04377877398442544,0.05160194326771601,0.14282700759208233,0.3557075486348882,0.038861713157966,0.08093201131284856,0.02805393937165345,-0.054698261042624756,0.16099233830393522,0.08305425007996417,0.08695343892807428,-0.022473063141294013,0.10913664324770438,0.07490776650226846,0.07776036234392072,0.0719452311772854,0.04022914945828646,0.0004534380533825171,0.3653339325728642,0.1305853476398247,0.07377557967581007
HALLMARK_XENOBIOTIC_METABOLISM,0.06079482638618694,0.06064698123202859,0.10822795163044317,-0.036965967809943386,0.06850691363517897,0.02968010498280531,-0.03975418509921202,0.09971132259711234,0.1462812188990742,0.015614464706312316,0.0600232757628609,0.18654116216564998,0.1294968702887674,0.0007909665281728515,0.21122668890077564,0.13798996883387415,0.11751637557040194,0.09911871811552068,0.2251121065605688,0.21326510962712977,0.07908260945027078,0.09229365814973167,0.1066310313987917,0.3612623065331071,0.17434709054354686,0.05961435129597193
