,MGH258,UKF243,UKF248,UKF251,UKF255,UKF259,UKF260,UKF266,UKF269,UKF275,UKF296,UKF304,UKF313,UKF334,ZH1007inf,ZH1007nec,ZH1019T1,ZH1019inf,ZH8811Abulk,ZH8811Bbulk,ZH8812bulk,ZH881T1,ZH881inf,ZH916T1,ZH916bulk,ZH916inf
HALLMARK_ADIPOGENESIS,0.040718914999277364,0.33857397947534795,0.16070591209764298,0.050859247363687105,0.33599238600251524,0.13904652424729558,0.4602980201235521,-0.009519172545945913,0.20002645005918457,0.1732555358395632,0.07127814964914905,0.047136673105975344,0.037218328259761194,0.11967923611170177,-0.10394263055008111,0.25526836305120754,0.24348364425839422,0.07019619157063464,0.1986662011808753,0.2001291368043343,-0.056725772878238524,0.04592693028620748,0.042889514329140746,0.14086123009016263,0.09208090249911359,-0.0763989334387469
HALLMARK_ALLOGRAFT_REJECTION,-0.007387378915942637,0.01451473464310454,-0.047499718167064386,-0.04293948364879683,0.2208680458275177,0.1176531166300008,0.1931432775349841,0.13807981945481848,0.3423236600449243,0.054808873102507344,0.02907078077432124,-0.1267973024905296,0.05124119555176573,-0.03506581453745352,-0.04098493030134723,0.08989421608847346,-0.015634507659448522,-0.06576633914338116,0.07018479600851438,0.08680206582845185,-0.06261462611428437,-0.13407613711588393,0.15038524660711738,0.005350725104785894,0.14906864724780908,0.019873569273102305
HALLMARK_ANDROGEN_RESPONSE,0.0707340201405241,0.1824222743061134,0.1120148753346392,0.035408592610406235,0.09730628927803732,-0.09801533790960988,0.19601341945572595,0.0522947170674,0.40006336799249587,0.012878362190575374,0.0055666721154488015,0.06057443587715847,0.10815445309398222,0.12023974429222803,-0.07236251406858171,0.25624312871150395,0.12359882943661347,-0.07469633788636262,0.12681399992898457,0.14957550585617496,0.018245505108390146,-0.13856373339775535,0.04164397331623749,-0.08631080356538771,-0.06212132809845071,0.08551625942164368
HALLMARK_ANGIOGENESIS,-0.024999381967351925,0.03786104815252285,-0.19607509088858127,0.029844842295351563,0.27105556028656136,-0.24688502437051196,-0.44494050445341227,0.07308251674046543,0.37284502620045695,-0.03509311050138191,0.09242820975351976,-0.005303485705452651,0.0724237715179674,-0.1466258449074636,-0.04136792341239932,-0.31439841543165564,-0.04181956463953468,-0.07715768433963952,-0.19889914038076964,-0.14357630102775845,-0.07223614606103537,-0.20195582247503494,0.0467145564807217,-0.2400045892277793,-0.38204989677375084,0.13662477658102493
HALLMARK_APICAL_JUNCTION,0.0853054369596496,0.21815525817754614,0.1485927566206707,0.09738249841469905,0.2891044899542594,0.10796189767980577,0.17343544540995823,0.0515005173394361,0.3185290680200946,0.12480599005157027,0.025910493041042135,-0.12616548413302656,0.06716650624079118,0.10808056484129654,-0.06655464554274544,0.3182127161439073,0.20158545123034638,0.1072042427992022,0.18855285855693837,0.1900649289634356,-0.04454677218382311,-0.10894668425933238,0.09289827017881781,0.07429914085441669,-0.03791057163193257,-0.09185815377591092
HALLMARK_APICAL_SURFACE,0.036238017199530154,0.3912203444333896,0.3137112648681096,0.03729594016100038,0.21114611685720058,0.14898431244179275,0.3283116323942674,-0.06844009628512829,-0.24593954776400545,0.05216956923916578,-0.02891996360692097,0.1696867155224848,0.1425380192361929,0.09580019899702782,-0.06315408194838294,0.3542783639740674,0.20733073880643652,0.06368368226405123,0.13590062196839284,0.1473082103842361,-0.1098628633488534,-0.032959157269891015,0.060761732906382954,-0.0048511120750579124,0.03362534149931616,-0.1526248356807197
HALLMARK_APOPTOSIS,0.0031456803333876925,0.026946725644676647,-0.17927810407911127,0.004675390497144077,-0.08390473646836705,-0.0720403689559632,-0.4053786760361933,0.03725891889642479,-0.004054683700049799,-0.1888932952642538,0.03152975487757378,-0.09416350238989293,0.02525889043643573,-0.003649106440785588,0.045279397589323325,-0.018203130222854174,0.10155904667010064,0.010742009742656655,-0.16169200996758953,-0.10067081193300836,0.006936960870304366,0.06802388184430094,-0.017827363394054746,-0.08860399335609292,0.06174360407803978,-0.1166281513959456
HALLMARK_BILE_ACID_METABOLISM,0.06324784265677169,0.3735075986024823,0.3327583552090906,0.09089416406802574,0.28360002419291847,0.1621021132307233,0.3804121757192713,0.07845608039459964,0.42142894415980264,0.1674657277248434,0.03181011872847337,0.10421628680483004,0.02525634487960934,0.16768577629951967,0.05516704089227871,0.2674987575489663,0.20897579390946952,0.0422252406505927,0.2478496206015541,0.17458075700324086,-0.03197032730124925,0.049888407127302484,0.10717109315425848,0.2531964991675715,0.08440126688147592,0.11653610736394622
HALLMARK_CHOLESTEROL_HOMEOSTASIS,0.050386737331823826,0.3333560212490868,0.16496949667569435,0.06356283510819266,0.30710157087570694,0.060129923166800735,0.27170926113579147,0.06547882081558333,0.3623955028419413,-0.0003691936042150254,0.04173388952073946,0.06701066882533122,0.02740565170326857,0.1126707942814823,-0.1391623205417896,0.22989000722230366,0.21625293616777977,0.07616888881423645,0.14605403806330264,0.1586913646660316,-0.034231492819769525,0.10092179350049135,0.12214384432502207,0.05546255601848297,-0.019185953948371356,0.04597012770134978
HALLMARK_COAGULATION,-0.011875815277222233,0.2357424657125535,0.0029203299367184772,-0.0005597286984864242,0.26379973299614345,0.10325357455753999,-0.10877724375181462,0.18587543120438732,0.40409529650281123,0.12588346531922862,0.0797838555915386,-0.06694416879508694,0.13519539421434576,0.15715752878662287,-0.03648697405812893,0.3263148423413337,0.0982192361432658,0.005058403781748002,0.08440672350500654,0.10886981818906627,-0.08398602557423364,0.1323839584292974,0.09740670824725572,-0.05085346868065014,-0.10828934091082577,0.1881564909457834
HALLMARK_COMPLEMENT,0.011587077337408788,0.12817670638808965,0.01811472370274177,-0.006378329235219845,0.2883535295755186,0.08995144604317974,0.08548784148377113,0.05084808724857628,0.2555215517497778,0.02405374028302251,0.009732096620494521,-0.07324368876372828,0.04732832721883432,-0.022782032619175625,-0.043878668672197585,0.029615930642334354,0.19844317506391188,0.00713075451149842,0.04191606550117767,0.046719452177315594,-0.060805089132508996,-0.006669816976249992,0.10587156292723553,0.030341526093426153,0.033594504858249434,-0.07155177835329574
HALLMARK_DNA_REPAIR,0.06577586713753747,0.26187293601338185,0.2042224433487732,0.06214705484090066,0.276351752769951,-0.11561053382904818,0.32514805929166285,0.015441125526927044,0.2990799261051956,0.11076383194189252,0.007959100805851655,-0.05721911219276141,0.07696364063044175,0.0763237010853287,-0.14060762297998428,0.32899350569260427,0.19527684496280187,0.007251709064261911,0.18774698544959745,0.17765044486876752,-0.11823357903471396,-0.10409912670871825,0.14633241992864424,0.1841186952502833,-0.01335511926801075,-0.1435529832581071
HALLMARK_E2F_TARGETS,0.04991591571452408,0.36975187438429924,0.34649672336230614,0.09360500331382393,0.30362655505370073,0.17667534378877608,0.40444677797773854,0.09568096373270794,0.3952696081257901,0.19063193483932264,0.027388088986300654,0.01260536262586613,0.12240041108789204,0.15486159814884698,-0.058277209200384116,0.2696296990108889,0.12641197404882576,0.02695140874584855,0.03632759561760763,0.1081653454077993,-0.07323030509155307,-0.13208499481744848,-0.0068071656583669005,0.2772802580523776,-0.015844913842275626,-0.05946886895138003
HALLMARK_EPITHELIAL_MESENCHYMAL_TRANSITION,0.0809612234764209,-0.08515783087523672,-0.24887533117178576,0.04997181838829032,-0.10799203686497692,-0.26312090528353743,-0.4366774140782645,0.1531408043205047,0.28920219796556834,-0.04590721473937736,0.07932445209348954,-0.10657747641549525,0.10423548693184559,-0.09573007636799001,-0.03474144477598631,0.06365265456810075,0.08373892143490584,-0.04970585744365807,-0.16115900306699557,-0.19718459291463858,-0.0501321757705298,-0.2142330657198596,0.06436567964758295,-0.1008119421282439,-0.2789141695093718,0.004082844750902525
HALLMARK_ESTROGEN_RESPONSE_EARLY,0.051447905881627905,0.10555553554410374,-0.0432381562138049,0.0560153785102432,0.009957675379133222,0.09251678062804512,0.3392418543106034,-0.04491348777780517,0.17854476294129087,0.07817250086711551,0.02950534264449988,0.11242117121435932,0.07952955085934861,0.0780716474562576,0.004044083137347141,0.12690940339395884,0.130633716723713,-0.0013322291637478108,0.10931526129354417,0.06988624919346063,0.016404088169798454,-0.06266009686096645,0.10438071550075609,0.08071457631623313,-0.019157310168837174,-0.06879308120545777
HALLMARK_ESTROGEN_RESPONSE_LATE,0.043333875500044805,0.401117469098222,0.18978112387575807,0.06435894998345523,0.2961445199503345,0.09410803047451205,0.1269654224803939,-0.005538022996336065,-0.2821694852179442,0.10282111453270204,0.015043982855005454,-0.17290798220210576,0.01635408309763824,0.011297168337384228,-0.11479458051507774,0.2272465506392504,0.10467264111486645,-0.02592487634580664,0.1451955368468959,0.15778972266595806,-0.03926656052640934,-0.09209631714375459,0.024640588418248646,0.11280564964292468,0.13985838186412275,0.019440140077896594
HALLMARK_FATTY_ACID_METABOLISM,0.019494349210219353,-0.03126541252017473,-0.1658766548956737,0.016947245152304242,-0.2648338461035089,-0.1519610295406052,0.025858573505804353,0.028922208933514115,0.31088449988440925,-0.1514264687302404,0.012460037140569669,0.0726328021936028,0.0677595247631272,-0.02272174940781328,-0.02776434080091452,-0.0035407770904260383,0.14658502103745136,0.009550469957977734,-0.10369135685713846,-0.1534244290508717,-0.0038614489585935084,-0.026236036640443793,-0.0428031749811342,0.0394205434284469,-0.11377928322901089,0.06818694549926155
HALLMARK_G2M_CHECKPOINT,0.03285212415402623,0.10789067051526523,0.28652064533971244,0.053187690041407984,0.18638747497008956,-0.011511189719183926,0.08139131285318582,0.10634001838034982,0.388691106304575,0.07074788674871242,0.020075174051037318,-0.07215691901006276,0.04510286790593046,0.10901720325272699,-0.036097055311623584,0.18120288599867362,0.146769661820212,0.04264982482575013,-0.046856219945232855,0.11198176254891062,-0.00826187201164661,-0.06917828090714881,-0.047136256590145524,0.09653728981416357,-0.14734606932418262,-0.01825680080140862
HALLMARK_GLYCOLYSIS,0.08548004084500284,0.16095160784709567,0.01055567622449512,0.04960121734894906,0.12389379507960029,-0.17211307331273135,-0.07561958448683255,-0.09038273659798243,0.20904729834561808,0.2142248405902918,-0.003636659859869058,-0.00475393160735686,0.06879115498146943,-0.050810159539158725,-0.14867292699900217,0.13471378132046827,0.08979032040425312,0.011781698693568828,0.042550987906468614,0.047648419647219206,-0.00954085894110878,-0.17378239565792838,0.045676012930109346,0.07150157575173338,-0.04597072218465897,-0.09708686730881794
HALLMARK_HEDGEHOG_SIGNALING,0.029529410984923208,0.2151121985299063,0.264612500711932,0.11043782712993681,0.14144829757469626,0.08247778926897037,0.4447972787820237,-0.14474592749624382,-0.3867991720956445,0.07204940541177886,-0.05987575671641585,0.08167084088356133,0.061707056593888074,0.10315724799865099,-0.06092812144425657,0.07332105768946945,0.09601285951160626,0.005917375812976718,0.05014341894095503,0.11949149393913674,-0.06344612538613915,-0.07772500100215042,-0.054708034835541396,0.04117848084949168,0.18327918823341774,-0.09829269765728746
HALLMARK_HEME_METABOLISM,0.04655137481153212,0.3182689902425183,0.11699885307652222,0.08504730481138943,0.224505350757447,0.04517237504356537,0.3903455504201146,-0.05519338539260864,0.29465310420574586,0.19266477711883967,0.03738888494924438,0.05529977314968915,0.13744914720771514,0.1013622927206542,-0.07551317053870665,0.26628599497013433,0.1964110882807973,0.05633157183222418,0.13871151076831625,0.183188845377336,-0.037874965677372696,-0.005765908228801205,0.06283287177425435,0.11071202460045243,0.0914952394698988,-0.07667983051800133
HALLMARK_HYPOXIA,0.0752226361365714,-0.35246653749274676,-0.28078997747981055,0.019674244406969455,-0.33341548324770126,-0.2829057567376514,-0.45587715735108747,-0.011646810116928228,-0.3063238095351832,-0.1521289622144051,-0.037602911851191884,-0.14690217246653062,-0.010675665504190456,-0.1802350375396023,-0.03764422257813444,-0.3773653726327525,-0.08323070948077411,0.06644946007281356,-0.09808203314582303,-0.25349763906968115,-0.07017115931239438,-0.11533559017836179,0.03840178394496575,-0.08758449668073888,-0.29266228557136764,-0.11618305983840534
HALLMARK_IL2_STAT5_SIGNALING,0.00949829091166773,0.137156473509658,0.004394079711461378,0.03605261458120449,0.28892778585334905,-0.13650595098936602,0.19574896023780286,0.04935077026033286,0.34570043576533244,0.09424170820062447,0.02333867444831014,0.13625077556673065,0.048376387672113316,0.12945197154058347,-0.09258817266923403,0.053846755871685144,0.15179600157153572,0.010976754975075675,0.09438577672769423,0.09854243728813988,-0.04225522487395516,-0.08104827345344869,0.11684553484589383,0.008456760565290444,-0.03981505635254249,0.009012101463142332
HALLMARK_IL6_JAK_STAT3_SIGNALING,-0.02199980069736671,-0.01557635487689919,-0.2646878373315098,0.04797587329163334,0.24150634475448804,-0.022752661910581513,-0.35912034473026055,0.09796643151483585,0.3376721954820038,-0.007415836701491704,0.07452549620587112,-0.08715463171338822,-0.0036885840050950042,-0.11566446284447512,-0.10653839372907872,-0.18375683031247433,0.15710859546280181,-0.09999654038403205,-0.029777447646176732,0.033960799567461925,-0.09131540396671292,-0.20302569509578952,0.010547990562986399,-0.09410710915957447,-0.24158622235520671,0.13419411737810072
HALLMARK_INFLAMMATORY_RESPONSE,0.043302198793816124,0.02160529499109815,-0.11438394166175912,0.03129737300219175,-0.003673809428548697,-0.08745914172644076,-0.2621177794328871,-0.08268468198137903,0.15908870527626826,-0.058689014662273664,0.05662673988910359,0.05458284148623333,-0.04375969969426178,0.14234280023121074,-0.12993396491106887,-0.010180014078163472,0.07499020449928742,0.014944648425541959,-0.14716964239646768,-0.07482042792587298,-0.12085201586678199,0.004577343090222594,-0.061948950538692885,-0.13284040968203958,-0.2648033131760088,-0.008204651795834718
HALLMARK_INTERFERON_ALPHA_RESPONSE,0.04268189776379691,0.4226627140346977,0.2054723254825751,-0.0868492365866283,0.3581911264337832,0.14124246372425206,0.42845819531813945,0.1503717519435409,0.4089326084307538,0.06179361125492728,0.04236478944651275,-0.021425891092454526,0.07353758964294611,0.16824612763783847,-0.10613072653734068,0.3516033729210226,0.185240661849151,0.057882524497739805,0.19985882389361054,0.21736587716549222,0.0018123742895623798,-0.030843757263613804,0.09454968815370145,0.1954822913017103,0.20701007085701129,0.06839461277138138
HALLMARK_INTERFERON_GAMMA_RESPONSE,0.04810223605452606,-0.07452443955752379,-0.16764484154875225,-0.048925459121776524,-0.09286562021841527,-0.085920476534833,-0.511831333823654,0.0585147709134792,0.29515376706478824,-0.07978278365104251,0.05286571435823244,-0.1962107819239036,-0.027457542900303486,-0.032557006959999975,-0.0982419157185612,0.07047748867355415,0.10711946471350271,-0.11152935637202682,-0.10795719359818982,-0.09030403934073494,-0.08579909175399383,-0.09218481315404482,0.07827104045277963,-0.13915514889065347,-0.32785940799761554,-0.10566370554084191
HALLMARK_KRAS_SIGNALING_DN,0.037696459681109344,0.46402644651322045,0.32851568524668484,0.06979406077723863,0.11997131647135825,0.21721279453629797,0.48895199770963244,-0.12286667074292244,-0.016511699207739018,0.2595415902192422,-0.01635076151183041,0.1111866520355807,-0.045450363880431506,0.1671662447310255,-0.12260118086814493,0.2729825559767668,0.17157219822934897,0.08937373024843166,0.2141195035771783,0.23350222354780517,0.009895679345225937,-0.07107854223489109,-0.012710189262984591,0.20328791340707347,0.2421348640322818,-0.049078467561646764
HALLMARK_KRAS_SIGNALING_UP,0.017902052214141324,0.12746250640268209,-0.030429081006226145,0.05588641544507588,0.22435777206108262,0.02948412492321882,0.30737954551520097,-0.10821239014379785,-0.14930858658315155,0.11411861237533727,-0.06883704265511577,0.08089774513138351,0.0531442217841065,0.1311273885366872,-0.09745297096022458,-0.058310587377505274,0.08260576467906569,-0.02075693993688218,0.08313756530046734,0.14731803851328046,-0.06233894274395235,-0.1272336269784085,-0.026913850795636567,0.01319323603667872,0.13833944827930908,-0.10573369726543214
HALLMARK_MITOTIC_SPINDLE,0.0412667794180759,0.36898345001078886,0.18081611428816885,0.09875868378349087,0.30068226148220367,0.14842881114179327,0.47193186389517267,0.03561658790430878,0.36876079358484043,0.20308440450996537,0.06173793911952643,0.10057134965943629,0.15627890540443462,0.16074956580165564,-0.044655237002691014,0.17237308834372742,0.2454254759980309,0.039537072082937025,0.16077348109722764,0.1853484042593421,0.02392345319387455,-0.07872451460811472,0.12492869710697567,0.19457744367433688,0.10669828294445122,-0.0043375212593099585
HALLMARK_MTORC1_SIGNALING,0.045537932003823306,-0.025528880874021914,-0.15144371629973113,0.07485177087936233,-0.2566699809559417,-0.2348361823417555,-0.3918154738473753,0.019501340869808488,0.24940371565911473,-0.11254380673117215,0.034059325426912465,-0.011400752247617593,0.041613466002289004,-0.14440621398744347,0.00297769282754409,-0.20584332549262116,-0.013828399410401412,-0.01220389429525318,-0.17829028585999057,-0.15415457726169535,0.0028646200130786072,-0.17620360237558363,0.02368135111766547,-0.055072669533981856,-0.23889431892805907,-0.10902304506242956
HALLMARK_MYC_TARGETS_V1,0.04984554545756029,0.12575726450115982,0.2323372956665023,0.1316706000436193,0.21712288843445243,-0.15856217156060798,0.3195625014740598,0.07857261569205143,0.3271176525880364,0.09146357557771682,0.023275434128820285,0.011764108406271541,0.08962892843299175,0.039091271887397465,-0.12923609499418587,0.28799416692681623,0.14323577897514753,-0.012692709483294512,0.22239370600689928,0.18102894005749834,-0.08857806315376429,-0.11810324564843065,0.19278865162030118,0.17445432708298947,-0.10519177603485266,-0.1161748461656099
HALLMARK_MYC_TARGETS_V2,0.04232017211103716,-0.0022949220207273096,0.11605167651161612,-0.05385155205268513,0.23088208961816106,-0.03662346714195194,0.112587769147399,0.09606045315244414,0.11378247369519336,0.10057803837863614,0.05533913875912302,-0.10700578720497853,0.02336572559567229,0.06825929795559897,-0.05009087614600431,0.06931562359172216,-0.005426647725269737,-0.04610742809465263,0.031839104564720964,0.106155200107276,-0.05781529348869216,-0.033665961536722,-0.015895150702332158,0.025775089686981723,-0.1536186935196686,0.08537046672952456
HALLMARK_MYOGENESIS,0.05009989221021085,0.35062325122729,0.05838967774072816,0.011271179151633292,0.3825027283574655,0.11211155640169393,0.35285601518607196,-0.010046423870396988,-0.14514731076349502,0.07370199242169646,0.041830331011160744,0.09093277436745757,0.14182870085046378,0.17988062847478828,-0.06431875938856661,0.34009030763180315,0.1893337062956427,0.059166836254435695,0.20432029542311828,0.1844099067753523,-0.017274502777930637,0.06065677502584693,0.02885389568074252,0.07336403682937002,0.2960278410278462,-0.013404231361133964
HALLMARK_NOTCH_SIGNALING,0.06304494684993311,0.3647612052159077,0.2825310112936392,0.03746042300336772,0.29508503110433354,0.18867801147919244,0.4513036435179347,0.03330656239707888,0.38078641077905107,0.16547959411199117,0.0810587473341714,0.08470972320414408,0.06674762870509313,0.1594370178375752,-0.09623232607043955,0.30615081614769574,0.10684828607358465,0.016208815252830334,0.20456275035252483,0.22950696196495338,-0.05212029923744703,-0.06332778975406601,0.10823031792902099,0.2666689972087118,0.08335671429391717,0.03093594738076705
HALLMARK_OXIDATIVE_PHOSPHORYLATION,0.10258150913474205,0.38860678031453566,0.32856275217216,0.09256318001317812,0.296607966394209,-0.11514787560314563,0.5392439099831582,-0.1049572406766349,-0.21423807064222283,0.13746665595516877,-0.062212029404644306,0.005365658947372283,0.06836425362701228,0.10010149127064415,-0.12608310590877078,0.33429673554741834,0.11298657922209165,-0.039325638071443576,0.2531566268345161,0.20044707603548978,-0.15182001257949174,-0.09514516523475293,0.16886683099767602,0.23292736842024073,0.2257003525643203,-0.09345347543530538
HALLMARK_P53_PATHWAY,0.0001129115400688712,-0.11890136983305603,-0.07580903763515412,0.05680700281292112,0.037079060667419964,-0.15612572131394165,0.252867319362228,0.002040720229700315,0.29780615759423174,-0.039071705794308374,0.00806482527425419,-0.08448987549196316,0.06337813972372937,-0.023209736879997556,-0.07816529285411328,0.15299702050348182,0.11198095494982462,-0.09764196298027059,0.21681304709924745,0.13843085692262047,-0.025744630251770238,-0.07246441914371873,0.08974866474216908,0.14130390495286713,-0.07688929101392228,-0.1345676376585901
HALLMARK_PANCREAS_BETA_CELLS,0.08241434011979458,0.4117145896069033,0.2621590483436828,0.0818969214690469,0.24526726682916195,0.12028475823978838,0.4344682454429986,-0.15702249237699328,-0.30890099845993135,0.06834960604686323,-0.008460790482494427,0.01971897309838432,0.07088827870284153,0.09412599171514686,-0.13114950255499355,0.20600272966503755,0.06686433842373414,0.00870224188909969,0.24719595433951133,0.20203174066499088,-0.034966621970129855,-0.021756774870284764,0.016970188040492978,0.1707523409594678,0.33413932609616703,-0.14716484934169738
HALLMARK_PEROXISOME,0.029085342196160782,0.06431513769925662,0.1285926194193725,0.017014097876830305,0.28146666335898823,0.20234282509746332,0.2972076934741284,-0.010503624162767877,0.09660551896004699,0.16715520043445392,-0.0207724580188961,-0.06798607328522453,0.0037922773323061354,0.11779948077561105,-0.09730083236428155,0.16022033374198,0.10901526492928337,0.026109042195632582,0.1956663195184354,0.17961026078138065,-0.023704887033300183,-0.07659065594027495,0.037654365139222296,0.01994682037129949,-0.0870969938479362,-0.13470129412263643
HALLMARK_PI3K_AKT_MTOR_SIGNALING,0.04909636757027823,0.23800975026572316,0.24031029416638852,0.08704544578477726,0.2218307361203782,0.0788446445253408,0.3940305969949526,-0.08173722567470665,0.03242185236358936,0.1131595144475269,-0.008717005665625189,-0.060983964246843464,0.08322862687538542,0.07958309881849444,-0.1942678906754101,0.12649482318062502,0.14409222310244096,0.015666271016479296,0.18266689030840313,0.18321774394255627,-0.0842742899076586,-0.10194634791983714,0.030740919791856593,0.1150497936819474,0.07214090976317956,-0.10121332525821763
HALLMARK_PROTEIN_SECRETION,0.11070899105562786,0.33498099162006106,0.05443525980333645,0.10646622567943329,0.2121226551941997,-0.07269114185510368,0.32306693333429304,-0.10177832029624151,0.2162512851377081,0.11439005514566308,-0.014163178865829837,-0.02336029551081655,0.13975319047009366,0.044298050370275344,-0.08062317133585437,0.2096679475885224,0.21535187700656555,-0.014370845835178597,0.13581226238377478,0.1432829001517744,-0.07470959144340328,-0.08171014783391577,0.06774410684754488,0.12908402830866192,0.026791783461762933,-0.1040905327170625
HALLMARK_REACTIVE_OXYGEN_SPECIES_PATHWAY,-0.07950899558160471,-0.33544725007802734,-0.23276940587233977,-0.09665236912148831,0.2045901393475633,-0.29608385876627674,-0.04759356741919579,-0.0031192094282549345,-0.1034974212928338,-0.00990603547365684,-0.023153314339587845,0.007838303786959879,0.04003796396416409,0.10274141703113825,-0.11459514628416254,-0.11154772783349605,0.11103633652358531,-0.13637942083773055,0.2365592017655048,0.15212919352886597,-0.0018979845420228566,0.07815940974888687,0.10680145067072129,-0.04537996100401778,-0.04007218885397149,0.1426675826768658
HALLMARK_SPERMATOGENESIS,0.08521117472415267,0.37001311248014046,0.28865533661535425,0.0964611089120446,0.3157046884027989,0.10365879616021068,0.4338134667950981,-0.13369636758014197,0.09429694170234225,0.12750932392837702,-0.01927568979358252,0.11197815314000065,0.11615229261070197,0.1755037517853435,-0.09602223970891248,0.3220769962786025,0.1555421643492449,-0.01810982416759634,0.2234786616133169,0.2030994735853408,0.05638883281395123,-0.09501142049614555,0.006091557200209551,0.2022383800539116,0.2510008501553577,0.02926028792816502
HALLMARK_TGF_BETA_SIGNALING,0.10304559999253582,0.3169815241579431,0.0981483590334211,0.06931524009558837,0.2870009839141241,0.14873045187199635,0.16667502706430237,0.0643025151430328,0.34538200136163544,0.09867105396376477,0.015017357446736913,0.01210608310179721,0.020840032954203985,0.13495701148040223,-0.008878154801786418,0.3077392103223157,0.1530680183313933,0.06148067675005463,0.1882406494244973,0.20996452654627432,0.022425831054312225,-0.048785504287624765,0.0366001095736402,0.026536073690859422,0.06659762620892944,-0.08192459405896695
HALLMARK_TNFA_SIGNALING_VIA_NFKB,-0.06567927242220184,-0.3104365023058691,-0.32871200096936476,0.002034629514239575,-0.1188483866862157,-0.18740769656646958,-0.538683983785718,0.057040066101583034,-0.45103981748247113,-0.1092492869645077,-0.008795444654068703,-0.26635336644463536,0.016414623531812278,-0.14990211099890427,-0.1664238886553245,-0.2495791663067352,-0.03839128947730764,-0.11484590818885138,0.030718042445837083,-0.05856343642725345,-0.02976208998792201,-0.20827298415360482,-0.07921979954870127,-0.16998609145651555,-0.33503512003425623,-0.02201031763955453
HALLMARK_UNFOLDED_PROTEIN_RESPONSE,0.07976758648285645,-0.09859395418888213,-0.04892059411174653,0.1115548413221659,0.013134741266820496,-0.22089124945919084,-0.22332423760515283,0.05177257728395347,0.2716368973339587,-0.039873969641585676,0.03232378349790013,-0.028048666043900425,0.11150207453622904,-0.029983725398131295,-0.11371368028783689,0.265646020498085,0.12127086781949373,-0.06910008203889129,0.12348029901890073,0.1304678019650811,-0.08391463115444645,-0.15154321488930508,0.06468725998226353,0.027210145071460565,-0.1975126199391026,-0.1257344468374921
HALLMARK_UV_RESPONSE_DN,0.05541395602199521,0.3636825742016426,-0.0033982246563832733,0.046813959911684806,0.2056957644523988,0.18753986650113377,0.36549150462685787,-0.11098892446807397,-0.15379607983413746,0.18411719596192747,0.01834407064984828,0.09497203259122979,0.11395338887427299,0.12357338842077309,-0.08041921410699858,0.21793481252794697,0.20311073375119026,0.03455530031463346,0.15939648358007175,0.16790324660128073,0.043168514355313325,-0.026968524487959663,0.010796159960765559,0.00908361356349651,0.09561075426030567,-0.059881834166928716
HALLMARK_UV_RESPONSE_UP,0.06328499101584754,0.1512912447759659,0.06989601354012374,0.0884720279722701,0.13311068171565635,-0.049873207449872066,0.27151139224600196,-0.11157323638908555,-0.3194501198552008,0.053010922134599195,-0.01218309816339095,0.015103785849821897,-0.016931865336030135,0.06865824217498229,-0.07889588940728039,0.03226406801460339,0.15648558183836522,0.05326664043627693,0.13886580228625986,0.13588390768878408,-0.023655886281437683,-0.08781478398239458,0.06029899316203479,0.08929915278826822,0.07501684042026162,-0.1199552768226272
HALLMARK_WNT_BETA_CATENIN_SIGNALING,0.10097177093334772,0.29345445543588494,0.22948014960925495,0.1505616429370148,0.09614617975182638,0.16633671804097597,0.2677097865991163,0.06636409821854518,0.43879770173197513,0.07985659864003698,0.023033970741757736,0.04401219975052295,0.004433068522116306,0.11004386317266747,0.09853353201732476,0.2743900825086586,0.0015662375559260039,0.12488201411217348,0.2157082358402558,0.21530942517042173,-0.03317457823235795,-0.10463639799276181,-0.03699057616593654,0.040149262833970356,-0.16445994916105358,0.03184992908625489
HALLMARK_XENOBIOTIC_METABOLISM,0.06139362209095833,0.27374053151097394,0.09115381360891446,0.044304649471152896,0.08601499015533291,-0.032412550748038796,0.2783034803858976,0.024857388946695366,0.11980942384659601,-0.059944122351726234,-0.03644243607542497,0.12699517797290785,0.079365682467121,0.14434266287779624,-0.11983602517991865,0.27039060894041783,0.22421124292149874,0.046222391816965094,0.14134531823317883,0.10931238434130605,-0.04919250379056013,0.08248252368525281,0.09840721273973317,0.10366575629423136,0.004735995963288515,0.03779936608108771
