,MGH258,UKF243,UKF248,UKF251,UKF255,UKF259,UKF260,UKF266,UKF269,UKF275,UKF296,UKF304,UKF313,UKF334,ZH1007inf,ZH1007nec,ZH1019T1,ZH1019inf,ZH8811Abulk,ZH8811Bbulk,ZH8812bulk,ZH881T1,ZH881inf,ZH916T1,ZH916bulk,ZH916inf
HALLMARK_ADIPOGENESIS,-0.08387410979979414,0.11342422000050349,0.20071422081189463,0.029779256168590954,0.10312758712105564,-0.004383369574022258,0.10481880040794299,0.027617812323226486,0.004126273468848842,0.056292184265832365,0.09403062047551654,-0.06997284850948368,0.03732965357577017,0.13697856226300825,0.23820955546072473,0.14259709173156646,0.15249883020715105,0.06743521388168958,0.1794633420555632,0.25898963202281194,-0.1927531050118113,0.15851240938225641,0.11973797627154571,0.22013800640950837,0.20094900572049237,-0.014721995476939824
HALLMARK_ALLOGRAFT_REJECTION,0.16782726752113944,0.10051041022459342,0.19275649443837434,0.059098813070323684,0.044963407615931913,0.05669911999070669,0.05264907833420177,0.12724009275883807,0.03787034031055111,0.10567613817511266,0.03284551747392095,0.2943245262003782,-0.02982218881955126,0.09537552370202386,0.26658305948355093,0.09024685234939601,0.2091054478010407,-0.032788824987666165,0.1769954800912193,0.1932409895318913,-0.1251282024965056,0.23486371445787294,0.011566960028984568,0.36109733087374946,0.14804139961891993,-0.015554521990322704
HALLMARK_ANDROGEN_RESPONSE,-0.07415702357374666,0.03633213773372451,0.19408182813705652,0.02705003147879806,0.08080467804074591,0.06687664081374593,0.036340936404802855,0.14452558746408706,0.048356408520870066,0.12516107240764585,0.06928003837372373,0.29596423108427716,0.032593156841792786,0.1719595314829631,0.24666581548569338,0.12536279091801764,0.2026251816465501,0.13202147246799065,0.1830554005228917,0.2561395850426567,-0.01953966202473378,0.16197730483587575,0.02074954346827674,0.34014618354050014,0.2244510343918272,0.12683057416828072
HALLMARK_ANGIOGENESIS,0.14754065185823872,-0.08664222960724212,0.03713710285626772,-0.00812179542262521,0.10278094940946782,0.0069810757104349875,-0.08563533026767203,0.17685771550308035,0.031009791962492844,0.004450729807730492,0.046792997309448504,0.3163384961466685,0.00894291138672398,-0.027284223370137136,0.08022588915274682,-0.22505287815063704,-0.12228263719432603,-0.07581513286015022,0.025687525101544824,-0.10867990504878014,-0.17611678685980373,0.056390298294104794,0.03915829693918316,0.21895951748781498,0.004059944891028824,0.22646447710730885
HALLMARK_APICAL_JUNCTION,-0.15707824734097772,0.11534371130098245,0.31958361672152646,0.045417688405545616,0.05956786368849255,-0.017608619232816324,0.110215516799485,0.16250986334160464,0.008410554956332285,0.07390007390758319,0.05230791146231123,0.09715623659117494,0.06600074512991452,0.17846682710411302,0.3109714762260869,0.23146541555457067,0.2653029451449998,0.05626021755934827,0.20085269624746863,0.2627152620874556,-0.13632030045894222,0.11964424097731008,0.0644499013609975,0.44780503610513195,0.2613949516106621,-0.019701910849439112
HALLMARK_APICAL_SURFACE,-0.16331836285338114,0.10908518091349237,0.2219089034427517,-0.009509866423155398,0.03944441741675957,-0.002064043981572528,0.07477512216799934,-0.012463253169694682,-0.046124158423305806,0.09553097573372418,-0.009516604154709079,-0.09835650794887331,0.045236793901590376,0.1411412648559002,0.13300400322848552,0.14574738975685905,-0.01006062404714934,0.036220194044052426,0.0918203448912916,0.20107783827010312,-0.027953641169439714,0.0056644944572644814,-0.03144696763537499,0.44492119593067414,0.2145800459663066,-0.06323622271962247
HALLMARK_APOPTOSIS,-0.05949839301465442,0.11973460339837198,0.14945333561856647,0.021478353714593827,-0.10799391811398748,0.022631302389326893,-0.05319005928363963,-0.005304279013703031,-0.05683050740839576,0.0762673290095227,0.045107272735872936,0.09796285091999699,0.04513383743691648,0.019818854956381495,0.08081772396691149,0.013530351289118447,0.08979403645537291,-0.0707084254542271,0.040662919177668184,-0.004421862164929315,-0.11170157386835662,0.10587992221501179,0.07404416405092411,0.14242266685527388,0.09717358375641809,-0.1323402083867602
HALLMARK_BILE_ACID_METABOLISM,-0.19994491270571943,0.021818749614809688,0.054416549602642014,0.021856667399965033,0.04415800640486307,-0.031186551037439374,0.0685844474704237,0.07264097459050667,0.020992229792346676,0.09611358341540234,0.06454332227476696,0.2089986418583044,-0.018698903445390012,0.07516388622410755,0.17016347138852392,0.12365038466759623,0.09594440063309541,0.0262304122263972,0.1248935581290855,0.1743094770367518,0.009422267731566588,0.07534593455957338,0.07273533875056956,0.024242119396026947,0.10265756057094687,0.12730928384650025
HALLMARK_CHOLESTEROL_HOMEOSTASIS,-0.06356386048351777,0.039217467941832104,-0.09117475625496359,0.05446748912694111,-0.01020247200533672,-0.0004001244242128711,0.0835294216311694,0.14088169715778281,-0.01162628302907292,0.03891476920483529,0.07807360515125623,0.3420478167182415,0.005211046422603973,0.11687980260526516,0.012622818220850665,0.008761584758607482,0.02842930903927564,0.01761371764127789,0.14130179491479689,0.2247354435542014,-0.019089777795381565,-0.053029390031129074,0.10930995499619303,0.044617018562726075,0.0687729322171682,0.2234151182848949
HALLMARK_COAGULATION,0.25601606420364653,0.11864336945592048,0.34774341137127246,0.0935237103173842,0.0013457862193799824,0.06628226710833722,0.006483932263710263,0.13950194565778695,0.04878697286273634,0.05972382211486605,0.10053118263918637,0.39207901250464133,0.09186923669218025,0.17280264961554026,0.3243280712945725,0.3573012201892971,0.2342983989381169,0.028920103393272157,0.2377001313058965,0.2508251280368734,-0.22212174650583036,0.22303228726248855,0.14240540382394495,0.4668933352754945,0.2269848394103927,0.3114300238135032
HALLMARK_COMPLEMENT,0.15772342007282794,0.13064505316753647,0.07868337332994284,0.04362941201872871,0.07245243596230556,0.03826254251120145,0.06715753775127398,0.00342722116306559,-0.013133639011411537,0.10876961477111291,0.06435133355622327,0.2570797455439317,0.01070764969037745,0.05401283779691007,0.20171806130463488,-0.14963561945655543,0.21990735313963605,-0.008157178252742854,0.17548512527302415,0.18215241614175007,-0.20645542753649307,0.13583316587652783,0.01353882462109045,0.12943999642321022,0.13484487967794578,-0.09688339772366081
HALLMARK_DNA_REPAIR,-0.17063022340548534,0.05106418907019971,0.14567578460751865,0.060799126981749614,0.018026899806640618,0.02324858029078573,0.1246370515205867,0.09750182801581517,-0.006711691394854642,0.13039074565548375,0.11106467194270345,-0.053568718320186774,0.04626086827172266,0.12510682518917807,0.19137559059031053,0.14848125297212203,0.15734892745459622,0.0322545280594413,0.16520338491954123,0.2531168127841987,-0.1198865480253269,0.07073274686300753,0.05448671326580647,0.1580709495734579,0.10684873503169881,0.012944824263652809
HALLMARK_E2F_TARGETS,-0.1444142211617667,0.11606011570234451,0.12727768860191419,0.06256170920943119,0.10653489704252488,-0.010463052937723047,0.1410441581070894,0.16846909101743368,0.016345313360950825,0.12087191280446839,0.08413500349990384,-0.16959476415048327,0.06536916925489018,0.15663744023714102,0.08318767565363404,0.1251292936718357,0.08275319606839178,0.011364161101291924,0.14386839655974581,0.2071970355440795,-0.14770070252511916,0.01990957934835027,0.0037088945437219072,0.11384630360900946,0.12909898459057453,-0.01606468523463246
HALLMARK_EPITHELIAL_MESENCHYMAL_TRANSITION,-0.11903538708890606,0.005681298967136307,0.31293328955516225,0.07571066737196268,-0.027503556485593408,0.07016997661907333,-0.04378891882351625,0.11058768584129845,-0.0243927974422812,0.031262493445226865,0.12071960783822555,0.3434027985863195,0.0508587553120311,0.10073848321075293,0.3006496661428771,0.30838583135575426,0.28596880301155514,-0.014884565804610199,0.07959953981758841,0.06732726615155628,-0.2287232272944454,0.1662226055264096,0.12864044831013802,0.5341652596801924,0.19444514358165024,0.07014683777561366
HALLMARK_ESTROGEN_RESPONSE_EARLY,-0.017459689778972005,0.05888171765537696,0.12296897270687926,-0.004995940314404745,-0.0473201850628849,0.006190321153717894,-0.0012422317440231078,-0.1026014265199968,-0.047882588916647255,0.01726186696837327,0.08866553899593915,-0.1790933426707339,-0.003582211921593698,0.06066555987022112,0.166785165117038,0.06738111662044367,0.09656400652274318,-0.03459645082928031,0.09466716304955984,0.2018501097494,-0.1900399709414452,0.04470715882875703,0.003903393389250819,0.1371850086427743,0.14830326337922284,-0.0815028454431665
HALLMARK_ESTROGEN_RESPONSE_LATE,0.05015595462527118,0.11049100316046484,0.11076838287328643,0.017468417881542873,0.08886321064091547,-0.02537849341609195,0.038339475692578354,0.03740847263229125,-0.06255782542561618,0.09387986417585117,0.04683666847646357,0.08465470477975248,0.04767554758107785,-0.014495056485894808,0.011680148281183456,-0.017779374016913617,0.03214562155582616,0.05037208189656489,0.13797553095243292,0.2191193730723233,-0.05802655431479798,0.03139869958496206,0.07771753422651938,-0.035982730742834236,0.07265773257728257,-0.06089262788741211
HALLMARK_FATTY_ACID_METABOLISM,0.1456099868923514,-0.029879479825836285,-0.02962219282084749,-0.04459565156951578,-0.13687606545358505,0.044002709857500176,-0.050597888018152126,0.020780215940230627,0.009820149468468656,0.03975522441896917,0.025051186077803732,0.07349390804256818,-0.04572345546708214,0.0014238895251031344,0.16220679579643416,-0.08605232703004095,0.022806249231399515,-0.0022169453127639472,-0.014885346939049261,0.048846976727310136,0.033101595962269886,-0.10096523686001012,0.0028286686783691086,-0.0035332895316122653,0.008334307190713843,0.06769701111822655
HALLMARK_G2M_CHECKPOINT,-0.14516543893061595,0.012974959239942541,0.09518187609457474,0.010212091854851382,0.09161391445139758,0.01727448654953442,0.026738191612623075,0.14004747194443476,-0.002390707561152151,0.14740134741335276,0.04485928251852474,0.0914104934231467,0.05226435697660084,0.1648383565410016,0.07610301860311293,0.08240120791329647,0.08772804322019259,0.02889463125281129,0.15621210785405465,0.20449181430237184,-0.12493254086813876,0.08325892346636042,0.05976206651137226,0.11699929515770868,0.05396211029555996,0.01701181687747547
HALLMARK_GLYCOLYSIS,-0.181689936421542,-0.01930471363849876,-0.06036138049821678,0.033559897867930774,-0.022131981574274304,-0.0016690840402846907,0.010059019760069433,0.015759054335248924,-0.023535485335237322,-0.035012663093605574,0.02821394464944956,-0.24153204440751505,0.04612184740019262,0.02708999191690316,0.11354988301677048,-0.012733065377050204,-0.09056284934339344,-0.044111362344078836,0.06871006186936833,0.16587171662905817,-0.08807298645502278,-0.05118331188079498,0.03364851617385964,0.06819270568346351,0.0909231648940289,0.02906940188309017
HALLMARK_HEDGEHOG_SIGNALING,-0.03782889894466209,0.06759172476923123,0.026587833529425627,0.06134725400722125,0.06781663990520637,-0.018804389537957406,0.08486242646748063,-0.1390971113682545,-0.12212626037982036,-0.03280622964577291,-0.06203925561375556,-0.3027519182149855,0.01814747585545649,-0.029680335501701453,0.18912330439397168,0.05862686666515469,0.11410960067010953,-0.03777128111172183,0.06437160577915463,0.10788344013278595,-0.1806745650406692,-0.0453615476429962,-0.05573483439760149,0.08882631494837816,0.16589589511826683,-0.09380947363034707
HALLMARK_HEME_METABOLISM,-0.02561111804499806,0.08357188126464411,0.18723219089496085,0.09444793376293673,0.011087459101090472,-0.0034600825836954554,0.08495473308853939,0.025138403800222094,-0.006423866149281825,0.05899112084001087,0.08825586481542867,-0.0641545705551848,0.0909819579564451,0.12294409260377866,0.253623312563161,0.09202966009653411,0.16945422858854692,0.04449608649270464,0.12985595547656878,0.23700617423543308,-0.14523935906173152,0.07268652591102319,0.12633064883637737,0.12694712126725,0.14767291103469343,-0.021513559322029797
HALLMARK_HYPOXIA,-0.20993420145620598,-0.19475285262945127,-0.17368779720309288,-0.07437493753182595,-0.11897183055294909,-0.007936045058776512,-0.127598768771243,-0.11700169519308633,-0.10749304457636248,0.05727567926695185,0.04823817412793667,0.019387445084557847,-0.027921088772679816,-0.04529793172604805,0.12884875832623188,-0.28114588564777354,-0.12703731613745195,-0.09315847963483186,-0.14046615595996786,-0.11094230238370288,-0.21778291993898724,-0.0742632424684843,0.09072468384542695,-0.04832500871130175,-0.1336416976427738,-0.11683659715998114
HALLMARK_IL2_STAT5_SIGNALING,0.07607638976814093,0.051498381442787906,0.1752103638839963,0.05287329431752753,-0.00401051649699732,0.0069120488276515875,0.08065189476932232,0.02909233886755495,0.002109191110306712,-3.500673067750732e-05,0.03142543306356689,0.1833405997584842,0.05999851200389893,0.12459735068797365,0.18398868044705363,-0.05120224354386258,0.12767953079541441,0.07063420494032076,0.14033436113773265,0.22586764922519334,0.018287146204926635,0.014646756865196293,0.1331781604740369,0.18485428691033973,0.10001170076845946,0.11794199856712112
HALLMARK_IL6_JAK_STAT3_SIGNALING,-0.08473559498107812,-0.06904177091588437,0.1214420421167911,0.024062131314572036,-0.03389307583523579,0.02766673869395356,-0.013598556342108612,0.09341282506984948,-0.0003325513394253725,0.08702334963151309,0.07960526563364007,0.32778981833218696,0.0778302881029605,0.03856332555611775,0.18668553566309806,-0.07943367624636871,0.2400190153094583,-0.033071363151624115,0.11108626361120823,0.16961762826363933,-0.09494999702655525,0.0815683700426291,-0.03440415075818764,0.09379391543450011,0.019091311771446677,0.15138940406479978
HALLMARK_INFLAMMATORY_RESPONSE,-0.0027179439702909405,0.005479653492237512,0.12021268292938428,-0.00988919253808778,-0.07246632633947785,-0.024319181694473183,-0.1381360216172821,-0.0934551520781956,-0.09053713866778641,-0.014622856676851377,0.010523265221209391,-0.06519238431416623,-0.020343837346665724,0.0663941950066987,-0.021056584330449414,-0.10911592223229483,0.11387798613069557,0.017669076912956577,-0.018742870609875787,0.02546221633776297,-0.09530663996386392,-0.0448295622205828,0.014557681264230722,0.031345556917535704,-0.006970025269398036,0.04907652683032966
HALLMARK_INTERFERON_ALPHA_RESPONSE,-0.16085924139133442,0.1485244380020371,0.22022664437169517,0.04178333693042951,0.10361724598010047,0.0294789771511315,0.12553499715953972,0.22473142699260656,0.027056060018871748,0.11785210259600085,0.11202072287368163,0.3769325665703528,0.0578383899457028,0.15163807098416796,0.1833581826328301,0.21818762839593628,0.17949942576038883,0.08936469314164958,0.22218478561227184,0.22633215200775164,0.128691237830254,0.1518373337563386,0.1076566191975102,0.31426453899390694,0.2719467718441321,0.22025076966199073
HALLMARK_INTERFERON_GAMMA_RESPONSE,-0.23445955456715806,0.006378942371331255,0.16303396222312477,0.041126384029633076,-0.03152140323505459,0.05030100671961443,-0.0760200030441718,-0.06228754586697549,-0.01487306683263019,0.13302244599300395,0.09040746907163737,0.29506980853722486,0.02226871990766193,0.024732196436219715,0.14453998541293106,0.06772524865181537,0.22513337325772845,-0.0577984362615699,0.09157465744504938,0.14540552249912647,-0.26782512686943266,0.19721653291396268,-0.008009218309811213,0.19402359754443005,0.0365214186324916,-0.04104949804073175
HALLMARK_KRAS_SIGNALING_DN,-0.016506536310156392,0.11075272720432659,-0.02793144617043325,0.04080511752006054,0.04369520174020706,-0.02969719813587371,0.0702203902968941,-0.07098951665267818,0.0592986254327675,0.021396931822426718,0.09311084001375144,-0.22030006962250703,-0.006728942063713413,0.14009297501084228,0.14073024946297497,0.030466889724707086,0.10692228953162887,0.118565861103977,0.07713228315883057,0.19854826308860135,-0.14474727782641636,0.010641069650664987,0.08860314686779845,0.017408519640665348,0.20465845116535983,0.03000987782252842
HALLMARK_KRAS_SIGNALING_UP,0.08155746541148547,0.15902929778591302,0.157458657560741,0.08029078092405187,0.027499066079227724,0.018063160804057826,0.07231489797413089,-0.12615684459779816,0.008650661441123064,0.08232752369436698,-0.020385829732706556,-0.21146381897669336,0.03791309191332166,0.10300948302596231,0.24109376509101724,-0.026313408667164962,0.23148114586880933,0.027072613236603604,0.1491508482841016,0.23173142665692983,-0.11202152467967962,0.10245391642699161,0.01019066372002278,0.376017898573783,0.25697875705230344,-0.14688383280162012
HALLMARK_MITOTIC_SPINDLE,-0.026861937086853048,0.13361991833683545,0.2259415223809351,0.06633962464424034,0.07298573539415848,-0.027447868653305802,0.09244134370011554,0.13047994284899653,0.018515697862016307,0.11833754473827425,0.06616109357508702,-0.007454251201346051,0.11274506704496978,0.17381743287556173,0.23788528124697958,0.07231563709081174,0.12227074388286155,0.07868133095408557,0.15467601803107,0.2412845955865596,-0.07788200913434147,0.06592045522459698,0.1119555735575005,0.27363227812875845,0.23358982656896868,0.08469649168522467
HALLMARK_MTORC1_SIGNALING,-0.14510760461046157,-0.153250325055057,-0.13300538011596094,0.03976150451582465,-0.08845754584573902,0.0010580877760460162,-0.09006797038387393,0.0753749287904869,-0.06758929541610495,0.04169281976805437,0.04004514939133232,-0.08311384534984265,-0.03176503594505038,-0.01192308935914558,0.09492099159043867,-0.12429023362194862,-0.033678862088533934,-0.03713883272012888,-0.08082408634245417,-0.02330040851476419,-0.04647224982201475,-0.054973283959466754,0.052863072606585626,0.09106952281559862,0.0035305676567494427,0.014725752728861865
HALLMARK_MYC_TARGETS_V1,-0.1330936626380828,0.022068116342907305,0.07910607646839754,0.05701474408230422,0.041977189111240217,0.03486522948986869,0.10496157530563639,0.15270173895609762,-0.013805658608859525,0.15213302727621567,0.06534013585455609,-0.10203325294816272,0.06868288036309417,0.14553972922647831,0.11790145577725891,0.1964891265950768,0.10374216663691264,0.02358335681453128,0.15265433925023297,0.24652913954452998,-0.0461284494824942,0.03139217637125939,0.10831750568417799,0.14632698207262532,0.06110656802582404,0.02679869773816738
HALLMARK_MYC_TARGETS_V2,-0.12188820342722527,0.017672642441296314,0.09740885277635745,0.004986270442622474,0.04508756063338067,-0.0001362849210461753,0.004770315504678046,0.10655408953629278,0.04260052960645827,0.10781771126489521,0.04766214139904428,0.04553537576950504,0.039773690773865895,0.0643456765506697,-0.027055232734696413,0.010835045350759463,0.033764621985015855,-0.0010503448417242373,0.15604730991855204,0.18574459406578517,-0.05223882169191962,-0.0035216745614675346,-0.005490973021198122,0.03703148952316242,0.016267039240944633,0.06190891085729647
HALLMARK_MYOGENESIS,-0.05144422868854902,0.18219572682323762,0.33324383321210754,0.04985416727266437,0.09653138674058889,0.020616631440015274,0.12288896083794112,-0.06853357206104012,0.044000081574085616,0.11853703548302273,0.08677917564186469,0.0257896077020077,0.110431727623406,0.1265204411385749,0.2878595124894035,0.23931503376003563,0.21297267067494466,0.05171758026516241,0.2058274712693462,0.26656900446192505,-0.037136704110598814,0.20299679706948814,0.08334748962977362,0.47669953475052645,0.3483771179750502,0.15884582258333266
HALLMARK_NOTCH_SIGNALING,-0.21897140812360044,0.09656024702640624,0.2066842557016339,0.061935042320326,0.09543984496309565,-0.02563158448861792,0.11952392059937816,0.09127899140587382,0.008232080844907405,0.0663230276729051,0.036155142728352324,0.02323680193946233,0.04332924627855917,0.10141860545560513,0.24181878559411676,0.20668846796633217,0.0354115707901051,0.031177169886257048,0.1606304255775977,0.24033186707000187,-0.2010807908124481,0.032792539543058725,0.0190513812095876,0.2475093720052845,0.11269476965429916,0.06021968617649892
HALLMARK_OXIDATIVE_PHOSPHORYLATION,-0.20263406790174154,0.09558013403639537,0.07791329691701163,0.04993012816968749,0.06593738779406799,0.0508689184785722,0.11399919335743589,-0.03402338507128555,-0.01266486312989434,0.05226815446299994,0.06081609276858334,-0.20891251813248402,0.040086070711608184,0.0872796221184674,0.08237846398332384,0.13743889580324392,0.07605808923225105,0.062139276032036415,0.15354049140036038,0.23809142040747286,-0.03372047689442444,0.05380057792937534,0.08783008628243595,0.12581561104563205,0.09540848305610607,-0.03364329251038557
HALLMARK_P53_PATHWAY,0.06738720626386056,-0.08162098698292429,0.03480007105993921,0.05780668842659468,-0.0516617461899635,0.04953671046182836,0.022464490340048545,0.06520830796120554,-0.022201154325704714,0.11253811488180292,0.07632129517969236,0.12865256470100575,-0.03526347079497091,0.110840849229195,0.033498633487074485,-0.016093468573076582,0.00865166227695147,-0.041951779078765655,0.10127441170538258,0.2040651596413874,-0.16197433354770327,0.028114001688316594,0.044100162788667956,0.0638857124617814,-0.00951733832492256,-0.022248898252362575
HALLMARK_PANCREAS_BETA_CELLS,-0.0689227423701333,0.14253878523389224,0.07641746494235468,0.08900889039705727,0.0538214972806095,0.0481229378205002,0.1415953884496316,-0.1004100757861138,-0.06462287546159247,0.01685852850511453,0.10759022753500753,-0.2862545873294161,0.030092654334954737,0.0024182647958102916,0.06999232758427072,0.15452337379765693,0.05232790063998633,0.12462866121736313,0.13640805724034816,0.23470199804560005,-0.09144365375089188,-0.014679403852988427,-0.061704846645114345,0.022213958899912803,0.15384925502160407,-0.031380809590501726
HALLMARK_PEROXISOME,0.06099573905998802,0.044449888362730755,0.13644215111481717,0.12042381952267475,0.0981891789890544,-0.00871820727440488,0.07615862897239435,0.07558198300006773,-0.005076274987868529,-0.021767394155168516,0.018897038504031995,-0.010713722991119584,0.07527437812676767,0.08063087278471827,0.09987067092701797,0.02108098164579852,0.015534452695532419,0.06640755428993525,0.12036346825456316,0.20225391462769546,-0.07910088237038627,0.04966303545030818,0.005742703172071527,0.11192955069133188,0.06997723601819397,-0.028168117659533955
HALLMARK_PI3K_AKT_MTOR_SIGNALING,-0.21902411685569936,0.13088691007451372,0.1576350640931697,0.018104811445409003,0.026577321427480094,0.03336675758586602,0.10516764394398567,-0.0357955592040961,0.005021235200369275,0.0403351805914091,0.04508081709296705,-0.22583671235908415,0.05632492941396751,0.06192346166959257,0.19722879201105703,0.14084888551359667,0.1863762906642178,0.08293425524150416,0.1318172921429952,0.22707704395721331,-0.07127233893484275,0.08395326639893184,0.0284748567523841,0.3169118225035328,0.20178189940587293,-0.1378978459714627
HALLMARK_PROTEIN_SECRETION,-0.16458279981484578,0.09770157445797002,0.12965386539733295,0.06241604771621657,0.005651187441691571,0.010187366695140072,0.0791398868850138,-0.006200834301852805,-0.03328224798444254,0.03781775704124795,0.0669360693403612,-0.16853645179197863,0.0948813379836436,0.06273205053752749,0.21490720515412354,0.07777168550524333,0.1548420843782599,0.005509415978839724,0.1617992960439015,0.26002596600521255,-0.11729204970682232,0.027759075893140996,0.05813481111352974,0.18310943311991032,0.1573974804823889,0.05975579975169562
HALLMARK_REACTIVE_OXYGEN_SPECIES_PATHWAY,0.2767761823145854,0.029285431286201053,-0.0014303012651819783,0.0445406543129771,-0.04735832644218934,0.10540010724385898,0.03460430270765321,0.022200573814233078,0.06561690166134168,0.10350661585232569,0.06305091288750464,0.38153079198775436,0.010814533220943182,0.09753699676745997,0.07838278958998526,-0.13889963900467003,0.06731481402742655,0.09353650018200647,0.1341728635762091,0.21010837413608266,0.21872724382948913,0.007191483010706262,0.10200135445540831,0.10215116976477236,-0.04509998714377097,0.23191563238337312
HALLMARK_SPERMATOGENESIS,-0.056446592619426465,0.13984271065139822,0.11358782239686098,0.06499578255909944,0.0502657191622464,-0.01197443564375831,0.059424813753398226,0.015611770336209745,-0.016199299114381893,0.07497029801422822,0.08984773447660449,-0.19794464176471105,0.06114759880663655,0.08405445987734986,0.16338419848726954,0.18059784268644782,0.14593196455724833,0.10318402365014528,0.15236567193492181,0.2180914807038287,0.033640078200169024,-0.02454459756402187,0.018689216475874952,0.055149952140982395,0.14780324285103016,0.045110720589102704
HALLMARK_TGF_BETA_SIGNALING,-0.08281312045551512,0.0919681703456668,0.2995410976659887,0.044838803402456946,0.09645863573973348,0.07091899767135944,0.08434748446558409,0.12720306227110192,0.026626946891602457,0.10563773220507994,0.0801111667336355,0.045366992226350905,0.028935737449829052,0.11229995941625728,0.27244601349409264,0.24757915846114434,0.20434371985106914,0.04991338251129701,0.17581391153194578,0.2154541473008428,-0.13269245368746616,0.1904707147322292,0.05860613355142175,0.4702323713411796,0.20104519735539325,-0.006880986440834527
HALLMARK_TNFA_SIGNALING_VIA_NFKB,0.07309995881545633,-0.10996147943767608,0.10985217686100796,0.0711257907230436,-0.07563020369075191,0.02950868539031017,-0.07327387586253366,0.04946390351313243,-0.09610651710755329,0.13998102118650066,0.02945811680222253,0.25630823663259145,0.03282463528073447,-0.06659684091238549,0.08018603934235427,-0.2552628695428991,0.0459554051625651,-0.06351033538167872,-0.04519026614228655,0.013232776338769795,-0.07682418653109328,-0.02513480059487747,0.04255638564640067,-0.2441025720333366,-0.0766473281842105,-0.009343337271295086
HALLMARK_UNFOLDED_PROTEIN_RESPONSE,-0.12560974869563285,-0.058604936013499864,0.12032387690670499,0.029768143111325862,-0.06960357094612069,0.05551420693388391,-0.0008886369565361944,0.11332045020921372,0.0036561152498468122,0.09829362666598192,0.0673967704085792,-0.1031539677353172,0.09511413780326643,0.08238316603216668,0.21481229651066744,0.13569774505333113,0.14609545681799463,-0.0405187321773581,0.1430983076315393,0.24169541470431868,-0.08416991619888553,0.06268885176271868,0.04413404633687418,0.23484180309527353,0.09393707803218448,-0.021822557509265948
HALLMARK_UV_RESPONSE_DN,-0.10910091866841451,0.10534669707033625,0.24578474304804465,0.05008366411504453,0.032417717626544565,-0.014468501149198175,0.11771682218267793,-0.0913197741459652,-0.024179171591522657,-0.009152361009940145,0.06727192555380031,-0.2628560995217689,0.05046822252099505,0.06361440532073445,0.22301262522915735,0.17148284475713446,0.1440452709957664,0.058986677140060055,0.19566923800060937,0.24517915226220632,-0.1415899454975612,0.202415978039755,0.025660980127282518,0.3380802578197279,0.222176596629603,-0.13413704255177253
HALLMARK_UV_RESPONSE_UP,-0.07555709091274075,0.05910742709138203,0.022530146299654708,0.04602865316928954,0.017425979547886477,-0.013045578501513713,0.01100442415856828,-0.03807093687525869,-0.04721976528553246,0.16136489972472098,0.027724828399891623,-0.2137946851994926,0.05259001151268229,0.08486108252900008,0.1295184208814683,-0.08490979174555495,0.05729398334540066,0.07946111372882644,0.10394478836126228,0.24291691116612174,-0.042984816396203884,-0.021297087641447218,0.037167476559049284,0.02875372326940439,0.1260314379275286,-0.037467459299989535
HALLMARK_WNT_BETA_CATENIN_SIGNALING,-0.08800711886849508,-0.040029444983676214,0.14226199863844077,0.04389681760978214,0.00958607498645574,-0.02498175713260366,0.048863492720316454,0.17195578205749068,0.03708981572119992,-0.006046608801868349,0.027481446194501734,-0.16830174672550918,-0.008263758458752322,0.165953033473796,-0.0009108045646499275,0.04059099980246602,0.029942507922699924,0.09101434304321693,-0.0019235145846832544,0.07768451619835623,-0.08108324609962285,0.029448939666128854,-0.019997646992489237,0.22727311157640437,0.06909228881981277,0.1528059059310847
HALLMARK_XENOBIOTIC_METABOLISM,-0.10687163815654156,0.12965084502950944,0.05631833129115318,0.009949480546576897,-0.0077559325585136885,0.05165620485176651,0.09198980257011212,-0.0008001443844797384,-0.017642035287598206,0.09889858462840889,0.045126622530917024,0.2498921408189527,0.053755221097042186,0.13241171646092376,0.10727560756138045,0.1364433449312042,0.10801511512334591,0.02040525681233843,0.17913633174038923,0.2302392001259061,-0.14205918240057286,0.08291190772766197,0.1660217681179885,0.07487554072016397,0.11013063011096799,0.06190293503757285
