,MGH258,UKF243,UKF248,UKF251,UKF255,UKF259,UKF260,UKF266,UKF269,UKF275,UKF296,UKF304,UKF313,UKF334,ZH1007inf,ZH1007nec,ZH1019T1,ZH1019inf,ZH8811Abulk,ZH8811Bbulk,ZH8812bulk,ZH881T1,ZH881inf,ZH916T1,ZH916bulk,ZH916inf
HALLMARK_ADIPOGENESIS,0.061771520806893306,0.08441725633152261,0.07739456955546846,-0.007169461496434544,0.12816694966865352,0.06869673147296296,0.18131893293519608,0.09156657957271198,0.11906164114917411,0.08652344878476567,-0.004355517986183978,0.04452075449263527,0.03109453038264262,0.0686417464751593,0.12766428831038848,0.0959692212627998,0.09167332205602553,-0.0138815105915702,0.13702668294840728,0.2005054006617959,-0.001900041934448332,-0.0008102224589697583,0.01703420274149283,0.1428815272715456,0.18417745774007863,-0.010224757702622262
HALLMARK_ALLOGRAFT_REJECTION,-0.02229913578197632,-0.014429894333985723,0.058991048005783295,-0.010846077974949775,0.031034075759955253,0.015429420509274995,0.062463905689019654,0.013872940807657337,0.17756275550955047,0.049957730745975405,-0.048654886310090004,-0.03797617971595948,0.03880153714781209,0.07371596717995532,0.10768662254500523,0.06073226592109267,-0.04868708576038488,0.05017476421552146,0.10042402688098634,0.13017713324288807,0.005324329419367945,-0.055237661724161245,0.03228779865871588,0.14563376306040307,0.009109290531281336,0.010498538315891169
HALLMARK_ANDROGEN_RESPONSE,0.07077918634500396,0.08243014832348658,0.0822372741010807,-0.016277051106474427,0.06484816498173425,-0.015173651097366262,0.06259789876427618,0.04044889046131138,0.1499755451557013,0.013782820057193002,0.04757398176365276,0.008419301283309363,0.0629220730871818,0.05268687176061302,0.07534754152771728,0.07237889416364567,0.07089555787923238,0.01260341873832206,0.15342401457425064,0.19063596433005173,0.0503931774968456,0.019963942006194474,0.022421261905441796,0.1316644042797936,0.16694073730678324,-0.032260141209555754
HALLMARK_ANGIOGENESIS,0.015130804188074934,-0.04647550989220328,-0.0676787562186838,-0.018673744753125672,0.005289758030745443,0.010002070698473298,-0.1393792773302813,0.037264355260778245,0.17235996406575993,0.019212074618046023,-0.023226873773393813,-0.009453598073233467,0.014796890273725462,0.04899259075999215,0.0994063490712001,0.028067274879620557,-0.019068165643552723,0.04217324555107589,0.019493450377505713,-0.08254555040857706,-0.02062987161734292,-0.037421147829839047,0.045906871529406694,-0.043698066151830674,0.0353502742386019,0.08636598156014695
HALLMARK_APICAL_JUNCTION,0.10447432115250078,0.07995385309669092,0.09670862307469628,-0.01812316779968167,0.17125809824852345,0.045794310631278416,0.18126965381487908,0.06618303905362963,0.17087245188550795,0.028113156967461493,-0.02109684543069498,0.05425873089918146,0.019446576705970917,0.09729897900188106,0.1628490502404173,0.11123427875934642,0.09677746004795415,-0.022337434009876794,0.14458194003908348,0.2033821720650185,0.036181089988359234,0.0017340515573009245,0.02503628739168082,0.16380170114965498,0.1843842426950865,-0.09239180323577968
HALLMARK_APICAL_SURFACE,0.08172079510378176,0.16046349133721838,0.05106506908435398,-0.027008647335035066,0.12952947612239915,0.03401059076557338,0.14349138616407514,0.08340827711025152,-0.062239225591396614,0.049701857004538434,0.05268286679792708,0.0049161565892959225,0.03029760872452502,0.04545903187279606,0.019857421411837484,0.11290020134692685,0.10947164725593207,-0.09332674092364025,0.11793287055378449,0.14004985674745057,0.03152670177528039,-0.04268731326686017,0.002448795282288606,0.13231710906476327,0.18097659814159436,-0.020526947421691658
HALLMARK_APOPTOSIS,-0.03655011025055642,-0.04882709632016778,0.039861765450364364,-0.019789574807108013,-0.06447418982703214,0.021315446299005808,-0.0596640218618063,0.037492999854522945,0.08495242296018213,-0.01666800801364571,-0.03759365573657889,-0.004289641743896906,0.016410957816703754,0.030869436014010473,0.0232461916134279,0.05954670438701077,0.0008392087000682312,0.05366574394242318,-0.013618796782471925,-0.08122398580454922,0.03487664039168822,-0.039808285846131254,0.08325618343646723,0.06114121401939073,0.06920992872647902,-0.09827069448676069
HALLMARK_BILE_ACID_METABOLISM,0.06709109704414333,0.09678601856248806,0.03275600236030276,-0.028101702064334613,0.1047581169373938,0.008414946565572236,0.16307684524794994,0.044007521406668804,0.18718500698589507,0.07074024685488386,-0.09586810837223923,0.0832871122119098,0.0288358386010458,0.06607138832132592,0.013850365293939888,0.06598591021313176,0.05510155617882611,-0.04831060649978731,0.1129810462579226,0.15378814620513026,0.040986020796053804,0.0022941671145850365,0.004236574782931332,0.11895333620758783,0.14820474518960322,0.07613900244721679
HALLMARK_CHOLESTEROL_HOMEOSTASIS,0.09521789851618002,0.06332516010101266,0.09450954133066311,-0.02163669841380446,0.11977922187535234,0.022116766771487828,0.14872667350152732,0.028448212450299184,0.09428076068379831,-0.017959520707624774,0.00944415276031843,0.007798480633113432,0.05873375124484718,0.08405314472590718,0.08872981665575641,0.08087155117647278,0.07288477842922411,-0.0737676439872531,0.12329830617101833,0.23571232327846325,0.07009921056843536,0.048503896558750995,0.05177857447779937,0.11007229737319119,0.15506137448296686,-0.07137323473284102
HALLMARK_COAGULATION,0.043113145978426456,-0.02157285892533878,0.059277430422012146,0.04023574285949299,0.10492994502351581,0.03425925252625306,0.027848944643644485,-0.007390289927074058,0.1515090202832645,0.026831894762510432,-0.059134651985019056,0.01776984676372811,0.07165200298556501,0.05998844647231888,0.14990411570447074,0.10099175617680338,0.06286830726835728,0.04321513154813501,0.1076316691848819,0.16230647986792374,0.009652042559624475,-0.02307436103597977,0.075841774153718,0.1193929375158693,0.11265964011899213,0.006709983221745088
HALLMARK_COMPLEMENT,0.029125833742891964,0.06921994455894293,0.05611680685850697,-0.021701548238379737,0.08360476932767782,0.04360465898625292,0.0755386622720481,0.08170851557228964,0.15852113143162855,-0.0026997735097833526,0.014363920221713672,-0.015161610954956934,0.03437570374265566,0.03167953716527104,0.08383924912430842,0.11856151920179317,0.023512465523795024,0.015911375309023146,0.0976659027520568,0.15293405920400757,0.041342085431289935,-0.020812251620276945,0.031140977264282412,0.11183680623856862,0.15911040823077977,-0.05872213888567763
HALLMARK_DNA_REPAIR,0.1028344224171238,0.12430752929385004,0.10500565289340692,-0.02926174717980405,0.13158925394049528,0.002630470384503095,0.20655691430751213,0.0767445157506148,0.18077508061821518,0.06240606625415067,-0.0035797853627113486,0.01982185313532064,0.06927394563622942,0.09072316843950097,0.10470684098928652,0.1607385328396367,0.15298835159009117,-0.04053473206539291,0.15888968065222964,0.21526050902255925,0.04735289332243012,0.03107051471668067,0.09015680640714721,0.15483403747828922,0.1474203788433886,-0.07263463467177222
HALLMARK_E2F_TARGETS,0.09057678449613162,0.09708644809068138,0.08847931806300728,-0.04756959934712475,0.11887273023053321,-0.015524912585090273,0.1912992759421751,0.035224444596343184,0.1812860479026585,0.04857999576809708,0.013831097369398795,0.03228207794703711,0.0744221559100117,0.04722750692497952,-0.008206842798903116,0.14032800038005402,0.10943010096594463,-0.0813163452119985,0.12398633819491225,0.15762643677034566,-0.023525794894065994,-0.013717945462842732,0.040198381258571315,0.12091528266941592,0.12872398526849063,0.0007736198183643828
HALLMARK_EPITHELIAL_MESENCHYMAL_TRANSITION,0.07067572763867755,-0.047429646628388715,0.023329014600408204,-0.0075452707177856545,-0.017920377167889343,-0.05161625704737083,-0.057896747607406214,0.015868429493511388,0.17698991675058842,-0.0204475088602495,-0.05182567091653896,-0.013719333011821074,0.0195102902664564,0.06281675601878962,0.21292502090045365,-0.027076478978238505,0.018782692222279795,0.03417954064782825,0.057849124269359696,-3.4351745009485693e-06,-0.024550595091092742,-0.014977491893884169,0.07642283355419859,0.09211713459074172,0.07737026305767787,-0.04922409969807147
HALLMARK_ESTROGEN_RESPONSE_EARLY,0.03169447905630365,0.04822709180480332,0.03548803743355932,-0.07315242236424814,0.006169879784371522,0.03775064152166408,0.0970452956036583,0.031736448650342336,0.0907648684729757,-0.0065149063385369875,-0.016800600867903207,0.0645077234226668,0.029403726378951115,0.030503451232546667,0.14499437714243862,-0.027287629294083172,0.03178015746303676,0.006766981238055477,0.13476246938906658,0.12779184642443805,0.07350374336255992,0.018139093290408748,-0.020197974277398407,0.1553906916882396,0.17992727021721283,-0.1050128826865165
HALLMARK_ESTROGEN_RESPONSE_LATE,0.028913413838123958,0.1251190306279562,0.09977286967682152,0.05028545393071491,0.17447817021959952,0.026404168897765902,0.16157305115460607,0.03533632949333372,-0.03030259500117271,0.041157519821093655,0.006875426857625443,-0.002505343640651031,0.022835125853069217,0.04960199043030847,-0.04383815953704436,0.12470167709779799,0.027212325735309205,-0.007975774700734527,0.1281611223592996,0.1911550693556404,0.042883527237970884,0.03882800699926926,0.012281639013590317,0.10600426360827657,0.15831899536385663,-0.00028648532936487983
HALLMARK_FATTY_ACID_METABOLISM,0.013536582064534477,0.017240233814842076,0.05725326127420734,-0.028888970536769313,-0.019819205841328003,-0.03923547904648867,-0.0050390108500607276,0.03997517496128218,0.10508970855319805,0.038836023200817554,-0.03950844687950613,0.02347556610119176,0.030937987765483736,0.06976544683754755,0.08586409890246925,0.05941716483434954,0.06037224833819683,-0.00891339841232398,0.011662552992529274,0.026987112186380672,0.04196679993788495,0.00280876136725228,0.01773514023595464,0.06137167282328248,0.0652115739667439,-0.010800190515634188
HALLMARK_G2M_CHECKPOINT,0.037617348726637564,0.08514864548692316,0.1009229111434642,0.027726054394801965,0.06629624797687358,0.024201065831134724,0.05726569882475119,0.028497201654540755,0.1910883757192716,0.008819470272382744,-0.011942466670595817,-0.035473718431084614,0.016468167554701436,0.0652847528514252,0.01637967591648682,0.11732257013387476,0.03735767935230042,-0.027330261622381676,0.13200563916215957,0.09066266985005128,0.05886863522948466,-0.005274898339244773,-0.011746270126383107,0.12551123967110356,0.10606081738722509,0.015564568480704023
HALLMARK_GLYCOLYSIS,0.09449668578797583,0.08493254873638646,0.028186421323787448,0.0050541911175425525,0.16464458730578754,0.0114230844722191,0.003812644251043447,0.10964760510562616,0.1472818780361012,0.007610456311009073,0.04762921428110041,0.0689750152423563,0.10655663259220763,0.07394863242419707,0.07570489792950226,0.08646810770507712,0.00600947810616241,-0.0048443753604647975,0.12451485976493464,0.17425513596497558,0.008631731094149166,0.0075012403927924,0.009143734294840737,0.11119685311972606,0.16043621542560457,-0.033904816498410754
HALLMARK_HEDGEHOG_SIGNALING,0.10108354622003649,0.04477698664009467,0.042273388118659036,0.03366874360764623,0.1366622097018629,0.014001902423233438,0.09282021123656069,0.04337468519188376,-0.08847003365584184,-0.01815777524055027,0.05095084992771306,0.014697941277822497,0.033372487852640895,0.037125597125537625,0.08226632550606339,0.004934924602066749,-0.04415141698926775,0.0012134448765159281,0.08546093819899274,0.18645815918445732,0.02677991246153039,-0.012972147939882063,0.03521521880916674,0.1048740563503977,0.16031550929268074,-0.09657797983213363
HALLMARK_HEME_METABOLISM,0.09836855239820276,0.07441992672270008,0.11993658167810667,0.023478766562733542,0.2055165028537122,0.04955202149627807,0.2182532997490544,0.07182357202159688,0.1786029606025149,0.039855738989865296,-0.020633509758146398,0.07421996312464027,0.1193252743803418,0.09384529509693619,0.1458890452165952,0.10790793457888757,0.06165924104081801,0.014910704215822943,0.1502735780466479,0.22907857053413602,0.07757239561896814,0.027010502543343855,0.04180321313631564,0.13217814577235157,0.20922146207572442,-0.022424174082449337
HALLMARK_HYPOXIA,0.035962267262119096,-0.11159698817045,-0.07713179206235554,-0.01635613768505159,-0.09072904124516241,0.03015459414646335,-0.10243027203577454,0.04498054385663554,-0.06860281039657731,-0.00459281554974828,0.015315255001166447,-0.03931944389018472,0.030025024489561847,0.03191878137082421,0.1327415144795528,-0.0932477836979187,-0.014006259241240214,0.02256203128803464,-0.03744381639982052,-0.06140237593529762,-0.007261989202600646,-0.04116669966445596,0.07691045452377347,0.062470740526675915,-0.03504792482330692,-0.054176454935403705
HALLMARK_IL2_STAT5_SIGNALING,0.02433614848421344,0.09549384624039446,0.11544446541740969,0.026153438663152975,0.16504717679923622,-0.013703871160045282,0.17480664724886488,0.06406554763868887,0.14873180496623925,0.01108849180555627,0.03324827629724011,0.028412440393901506,0.007178409736617115,0.04788816073226678,0.08853180924745976,0.08352677400328128,0.07843971837783958,-0.014453388874293689,0.10354258682430402,0.20313313342968084,0.05618765289325005,-0.028487272015254028,0.08285711153685088,0.1337993503293574,0.14091701126028852,-0.020905539207025377
HALLMARK_IL6_JAK_STAT3_SIGNALING,0.020506845675651576,-0.0757734467532002,0.08006384659798585,0.00401538298204368,0.0949259356195224,0.044793623976671734,-0.024776301689559865,-0.02899834477191963,0.1578113242803769,-0.005631614204084254,-0.01057519258341822,-0.02484863753625099,0.040511594127194954,-0.016229651168738063,0.012429591126344411,0.011114789370736627,0.07447560267586288,-0.01539910880917545,0.07842977669994221,0.14702972784752283,0.006512769750588439,-0.03601816312009939,-0.0013661003578351362,0.0922055062088499,0.1186771403917162,0.04078873724155595
HALLMARK_INFLAMMATORY_RESPONSE,0.03824704325519327,0.038111093543203925,0.04692367742527289,-0.003645952968489649,0.07484966477137457,0.023053114945265706,-0.05136066781943726,0.005306324089368852,0.04754783115687659,-0.00903921229659402,0.015845223292819215,0.07104009005637621,-0.007484030067563427,0.05997206226899667,0.04878068232629568,0.11659735144061989,0.0540881232270104,0.014671821110217576,0.036093641438600096,-0.005774726240361797,0.010197843520046124,0.010079040452745321,-0.0010035776415365245,0.07764870913567755,0.017395469457309933,-0.0353254466904966
HALLMARK_INTERFERON_ALPHA_RESPONSE,0.04277998341723381,0.07982986336286622,0.08064072974066373,0.004361886564257136,0.1411376097128366,0.010908144399835831,0.15369106593643653,0.02744672904817708,0.17879709587459403,0.038804333697263466,-0.05686219115620769,-0.0004064527113414567,0.017391395920273087,0.0740451834599755,0.1743877761963618,0.08499330877060117,0.11148186169647098,0.01261282595416113,0.1393377315433542,0.17560500386484504,0.0519064686120344,0.03680198327470769,0.07546818179514302,0.14224459648268264,0.1040066782878929,0.04402172090056625
HALLMARK_INTERFERON_GAMMA_RESPONSE,0.018037190886907962,0.020664085811952428,0.0674402627728683,0.007482214675470529,-0.0891098167565071,0.0026033938075559863,-0.06394060971962272,0.01061316912791461,0.15254463851343095,0.013634940026247913,-0.016124378765782734,-0.00552752981159918,0.017517423795618922,0.047861505765304,0.1152184699073311,0.07821170616210359,0.08325682784549175,-0.0002683881135079406,0.06857346473797302,0.10328516907772,0.00023103439589046136,-0.020277698690369488,0.06616249347011752,0.10404492885454103,0.045942450315602554,-0.06475391350321923
HALLMARK_KRAS_SIGNALING_DN,0.08800623751354188,0.08535080905030563,0.024997792758920525,-0.008027077429680514,0.1335522032606552,0.09672581432907824,0.1900842164726266,0.09194299817996208,-0.008126626495740594,0.08290788561651535,0.006521171835528178,0.0740703485864064,0.017325203381317853,0.09547527129840032,0.020631718590992335,0.14587739707542927,0.15198601522072414,-0.06647895526086915,0.11535347511458734,0.19866485003065046,0.08565757341154209,0.029272902750608912,0.028001289461755084,0.12676961774586623,0.19724337128070318,-0.017951785729428515
HALLMARK_KRAS_SIGNALING_UP,0.047948616515751656,0.07079986585415933,0.09695952379959613,-0.017679348744478664,0.11073563241404082,0.03308694855131157,0.09289295970251854,0.03673227989398423,-0.006959192652070198,0.0262183000648429,0.04486344281413299,0.0841727517230413,0.06451882507148816,0.003157570015078314,0.10524384962817138,0.09133412199716656,0.07115933234207095,0.002398318098136815,0.13986984259942964,0.17971634388592594,0.07624959396122377,0.005130048391763159,0.0017915393062555448,0.14682620956635148,0.08938638613893111,-0.07637671523597894
HALLMARK_MITOTIC_SPINDLE,0.12121453612053823,0.0952902695579558,0.12388310861355747,-0.010125100759263693,0.18543080201125464,0.03213003259312195,0.23703064673137206,0.02931122470668324,0.16422056231761795,0.0486224046672166,-0.02746028814457001,0.08382821060344509,0.09429950449279177,0.09557681718601478,0.13484538939698623,0.04240946657679708,0.06798360773692963,-0.014954052936590523,0.13515843001905356,0.2037617933953165,0.06750238917992164,0.015585625116332933,0.03824837340716263,0.16765138017366932,0.24236203780616486,-0.03699092444730893
HALLMARK_MTORC1_SIGNALING,0.07925942566537388,-0.009026029103569784,0.02023209660924465,0.0003227798369412511,-0.036374179969208525,-0.044035636879441016,-0.1106194967242547,0.06737259295853443,0.15679091019262487,-0.02854114956648662,0.006176384899450664,0.02051285518212178,0.07539238655488371,0.03702986768919194,0.09068564139970704,0.01668376487521272,0.02855055117459214,0.007759405666195712,0.041950216556248456,0.06443985839906262,0.04433027532078079,-0.009847793149546669,0.037541602566224276,0.08257069117902388,0.08075878215643385,-0.07599887851129175
HALLMARK_MYC_TARGETS_V1,0.1265066759639795,0.1228316619156849,0.12740004189875792,-0.01828280467201878,0.12932010799365218,-0.034808067690279845,0.16469129734502364,0.04712448878532803,0.1683752980892116,0.034021130923559934,-0.02006918847484222,0.06638903263050418,0.08354999702462033,0.07861506080566226,0.028970044622757065,0.13638313652339532,0.12703871018884427,-0.04659608614879359,0.14547102847061383,0.2150696354750094,0.052073729635250164,0.01713071752628813,0.06323373398977025,0.12881800885154812,0.14930129247086033,-0.07843051302326652
HALLMARK_MYC_TARGETS_V2,0.0754919177202376,0.09323726393163179,0.0753679983528116,0.021109845205632666,0.08096145408615436,-0.022913539302967703,0.05625775561487501,0.01963378306307184,0.06383275269999593,0.017622244210463114,0.013925184490049076,-0.015564590736097129,0.006669719964569324,0.04253335328785959,0.03467838298357285,0.06725669068971782,0.01044643078365515,0.005466977080811429,0.0709361243080053,0.12989778283930684,0.05410053670299769,0.0073529502111014675,0.0008278591727777898,0.10533138920726594,0.0923147343156322,-0.008466090141956949
HALLMARK_MYOGENESIS,0.09274331914517535,0.07153310998885191,0.0752844460525789,-5.577855069987832e-05,0.15407190639206778,0.06279903192114032,0.2055502493039314,0.06955039530195185,-0.039794578771336464,0.04226078407681985,0.02127277563627856,0.06965714985823747,0.0667216122866577,0.07126083693355838,0.17947051024890048,0.10691778933279286,0.16141904599966111,-0.027327842273138465,0.12624651038157966,0.2053895359471192,0.05547705836708689,0.0417655794372668,0.04664737573357937,0.14975260363928014,0.15640539348316532,-0.06106044133599643
HALLMARK_NOTCH_SIGNALING,0.08259039236127859,0.09202527256837488,0.08526547582715732,-0.01599014343301604,0.11564764139831168,-0.017830870752423195,0.17691940515574817,0.03874473653679626,0.1695750353004448,0.030287356841675408,0.001532181750498438,0.0203364444311675,0.04773350082518053,0.0805444696654333,0.11587555972788423,0.13780837580514083,-0.01937157546472189,0.009591531566378606,0.13079355723739827,0.20757993397928678,0.014442852137464766,0.0019736062566291603,-0.005529310521802182,0.15415966692838176,0.15382724629136332,-0.05557234321268077
HALLMARK_OXIDATIVE_PHOSPHORYLATION,0.08234657071201057,0.2011201875526091,0.07122134409615431,-0.01630987537207193,0.11073089255749848,0.012939284172073925,0.15546133845894253,0.11738329504142503,0.0030948032219024085,0.005560734479538913,0.049507931683707554,0.03186136859278316,0.059896186201254156,0.05182289598638587,0.029338916297038144,0.08714251613543886,0.10191865034576687,-0.060277420152409604,0.14913533489772335,0.21554319948716819,0.03488339010222698,0.0351338943173439,0.09446801252466774,0.14411711910781705,0.13034269784408367,-0.06387977213269497
HALLMARK_P53_PATHWAY,0.07054726469933009,0.01957428130938806,0.06745639943797783,0.003496177720519119,0.03796783716975163,-0.027156504421638764,0.18395886038199744,0.05364631361675673,0.16703584919790485,-0.006745939203250686,0.03404915498104021,-0.018648764303865986,0.09147749388130001,0.04442363829171562,0.0309942184031398,0.11048168184361129,0.07851572074242565,0.026803248759063,0.13110771935978177,0.20729574259847863,0.05624704116916944,0.03400147131966028,0.022611196634908223,0.09521595600175506,0.10754377961423019,0.0034370579488241064
HALLMARK_PANCREAS_BETA_CELLS,0.12697561474084432,0.08871405324647987,0.10203492060194726,-0.01845258658074882,0.11812318655277088,0.011147380234193741,0.1271188698293658,0.04608273529820198,-0.03288594863907264,-0.03231380469039728,0.037306689432792674,0.027948534486997034,0.04544855814473862,0.038474886392337815,0.08339882158669713,0.12877408629091258,0.08753506776475493,-0.0664551885318188,0.12932812256854115,0.22871851698826243,-0.012176220702683312,0.029768913373393203,-0.028289519710064784,0.11264651055471357,0.11839125134859721,-0.06899901765872636
HALLMARK_PEROXISOME,0.07324422970947583,0.02247588160291982,0.11333936806586038,0.039703148991013466,0.0863934433265804,0.025390552022760766,0.18288355840665033,0.06452225878668061,0.08291511336398649,0.033996006111529815,0.015622321146034747,-0.0176052986256288,-0.02509074031130753,0.006561263782179543,0.0194523722012934,0.13703993501065556,0.0845476226431681,-0.04225822365812349,0.12627880571413277,0.1969241766502764,0.044012510467109675,0.023403670055086846,-0.004020119707865474,0.1395441542016039,0.13318083293533534,-0.1315315208540361
HALLMARK_PI3K_AKT_MTOR_SIGNALING,0.05253498024531402,0.1080086933012238,0.10069385552118097,-0.07461376162114756,0.0999523782831724,0.009069887903015855,0.1665295651339368,0.11125803741869955,0.0862504516175014,0.025079582989922074,0.03714582116366707,0.04883746922592344,0.03186024148994762,0.061346113073172594,0.14266714989508686,0.11294491066024262,0.07112666858957804,-0.019508947633673213,0.15756101047316823,0.20200767787941085,0.10589441125122195,0.04806070493167845,0.011308648116856784,0.172067118396174,0.17003999093857067,-0.05150076074807276
HALLMARK_PROTEIN_SECRETION,0.10010636783258728,0.1239045069053287,0.13372717137246823,-0.001486471009830785,0.16304554390462817,0.03388458776025256,0.16336030206635346,0.11251774533700856,0.1464656880442171,0.0224200181598742,0.023854958753521487,0.09337183689978416,0.10688411963204213,0.08010078696037777,0.12001891328179987,0.10324536414001872,0.03899099876533554,-0.03378428714081956,0.1597598174610051,0.20056637010423284,0.053727726741580856,0.019704718985218896,0.061624303208164755,0.1529879590118869,0.24257926120513962,-0.0568563402564683
HALLMARK_REACTIVE_OXYGEN_SPECIES_PATHWAY,0.0528205378527296,-0.0025762744421436454,0.12744644824938547,-0.0022504878582558507,0.06685450458703468,-0.0005795590659917098,-0.028638675763954468,0.07800008676155597,-0.036648498610863174,0.03183141669907868,0.016678446987230387,-0.016812670179176814,0.08156161475039256,0.035667349592500786,0.006115891760173359,0.10769951363522226,0.09818120408538857,0.007918262962125682,0.11033680659501562,0.2077053869444578,0.1189745393923784,0.028131574206835604,0.03135124398976666,0.09412583461351713,0.030863737046266805,0.038977160721093876
HALLMARK_SPERMATOGENESIS,0.02412724148105434,0.12006076054512509,0.10083022421895875,0.004185454569896478,0.13952741746829167,0.06706491147416668,0.20567953653988677,0.06491947896592752,0.056084994248269425,0.053557514170453645,0.07619621177720333,0.02556910483959218,0.10389383680953808,0.03381268675592049,0.07449269072170288,0.12610655171405663,0.09225046295290734,-0.09578505151443223,0.13609435850715254,0.2199205906597675,0.0705627191718877,0.007987766938148039,0.02178669385512385,0.14419899667525726,0.13782759975310727,0.044508472387788524
HALLMARK_TGF_BETA_SIGNALING,0.048082553298691606,0.15116089107394512,0.10985825796640404,-0.031630676196689425,0.12250892703963961,0.00970366832210464,0.1324483832457242,0.024502950866566252,0.15968236361203508,0.07341365302850125,0.05593329224848079,0.07359933286858736,0.015011679138512285,0.06611749448786737,0.10789298168939795,0.14952000197587845,0.05978991497874403,-0.025230598065214146,0.12588567590277325,0.15026236225906356,0.07562576153705382,0.03790802140680419,0.02481253861645619,0.16474726670642947,0.203688128257197,-0.08015086946330134
HALLMARK_TNFA_SIGNALING_VIA_NFKB,0.04433411637874088,-0.11052120856188127,0.0714323423229088,0.023990287667720524,0.08971614195177259,-0.06220784414435503,-0.07967759053858535,-0.027195998350218537,-0.10282994112828521,-0.0012418164198441245,-0.02284458940706979,-0.042386543686887976,0.013304264707802473,0.027720634350601906,0.07185883021619265,0.01947006516717978,-0.04047617484902923,0.023969558325794404,0.03240789098297714,0.07277282656539952,0.08432052711151444,-0.01622146375555624,0.012609314947825061,0.029031747157130132,-0.0064037006740235315,-0.02178764701451594
HALLMARK_UNFOLDED_PROTEIN_RESPONSE,0.05754941217655465,0.0318935239302417,0.15079925011406334,-0.04435933561711168,0.07507373071701207,-0.032404677005578836,-0.00632635090793698,0.07981213068786665,0.17221982293170995,0.015563126823418365,-0.019560355950496194,0.03478804389447039,0.06118452614347598,0.07802403999094953,0.1082673445968618,0.13234282914114573,0.09582027438104451,-0.05978560452224339,0.16490262762012417,0.21009969802688738,0.05618837279908576,0.007728390891927567,0.05692492540000409,0.1207552875642085,0.1428621209918533,-0.05655677815213815
HALLMARK_UV_RESPONSE_DN,0.11362233580323176,0.1180769498148868,0.061570161036753036,-0.05116242265766205,0.07857544060752175,0.0096390508219094,0.2093061075748835,0.06498211703860408,0.017379661270706313,0.06702503870178085,-0.004813295334403464,0.04218073466992545,0.02589200632622373,0.058514700562990525,0.20130901807535237,0.021777652169038306,0.048310632223988,0.04733193674754754,0.10149822012246011,0.15473626417730185,0.02611796300112296,0.05727281290321608,0.07698879725446119,0.09766264651556901,0.1907764493338261,-0.03555235882914099
HALLMARK_UV_RESPONSE_UP,0.07347158833700247,0.10647501726503178,0.10450913617508079,-0.015174273325273274,0.12182149868467679,0.012623234131906325,0.1376266332294528,0.07734072281560218,-0.07017489223254415,0.01972324886882134,0.014691785013789338,0.06871204214686275,0.011082959311585441,0.08230536688870228,0.08112810841960308,0.07963630323863041,0.11271404360763848,-0.049461157506700305,0.13796359203047212,0.20803156687179516,0.052155020452892,0.038143000171743754,0.022946440589882936,0.11300317661657196,0.13987816827810035,-0.0387647698212603
HALLMARK_WNT_BETA_CATENIN_SIGNALING,-0.04018029495979568,0.03074688619696356,0.022271659706939274,0.0012504284834901126,0.16273710756551285,0.0036395562438557,0.13236261955866008,-0.05030313226475904,0.16848753073517705,0.009140441376852559,-0.0485615112233716,-0.0006949844576258343,-0.03615019890699978,0.08091275225344073,-0.059833119456943466,0.06028201246225373,0.09314185985546575,-0.07230939044163005,0.04481605940931607,0.09820163202108889,0.015942887492012763,0.06538107043689903,0.027947635583374736,0.13867054740033108,0.11031116316721262,-0.02486887442648146
HALLMARK_XENOBIOTIC_METABOLISM,0.06074797923094332,0.0933535711332425,0.06345822393156206,0.03889139218754505,0.03568508248394483,0.023188987420629054,0.1723374363270841,0.029149971668447114,0.07396445164858068,-0.010164579720793784,0.06481201145592948,0.052512724936494774,0.027746462742076757,0.07037426691802012,0.046976790580504066,0.06314478587565485,0.07998374456714435,-0.055581730382236766,0.16130212607749797,0.19362579537022662,0.0631375091209097,0.03276266787473533,0.04326986005541031,0.14056321506971797,0.13352009949518504,-0.05295408834902577
