,MGH258,UKF243,UKF248,UKF251,UKF255,UKF259,UKF260,UKF266,UKF269,UKF275,UKF296,UKF304,UKF313,UKF334,ZH1007inf,ZH1007nec,ZH1019T1,ZH1019inf,ZH8811Abulk,ZH8811Bbulk,ZH8812bulk,ZH881T1,ZH881inf,ZH916T1,ZH916bulk,ZH916inf
HALLMARK_ADIPOGENESIS,0.13309879620464887,0.24234735893304515,0.39624834983207924,0.08820931079420251,0.23330299783601077,0.012390454597419113,0.10056894874475476,0.13006312393343333,0.41759757317623936,0.08728124595003837,0.016093276684549226,0.13051378364846558,0.31142395319862076,0.1467977008353233,0.2687874249509286,0.07104742951370528,0.19496797412266578,0.2959734410409939,0.07360241772695644,-0.019677951695829487,0.3362271819344368,0.037908920413763036,0.05342179000628101,0.13492693189205798,0.07998314324492857,0.1557720442877352
HALLMARK_ALLOGRAFT_REJECTION,-0.10298247096853816,0.09720056536344027,0.3541165595117366,0.05123956027854316,0.10743705170550426,0.11959972546205776,0.09196729862062672,0.2711649664755624,0.5302595863503654,0.03177796530334362,0.04679736147333076,-0.0836707617723462,0.33165251035164806,0.2190885133104738,0.27404760030203984,0.05144295712101071,0.28381431358751946,0.3201165797516814,0.13377235271113488,0.03657484320694883,0.24394332972693325,0.243947490698727,-0.022193264780667587,0.3835415313350059,0.22891069054829763,-0.003950092242557491
HALLMARK_ANDROGEN_RESPONSE,0.18602225922189894,0.23620708548076075,0.3898888670617511,0.006852848754297035,0.1889522778940636,-0.017067065532362546,0.09096254468292263,0.1807197913491317,0.3795382635448495,0.05404468124280851,0.0834017215497734,0.02656493106143616,0.33976444300570785,0.11402003148427088,0.2736475478421553,0.14594481744386958,0.2502590976629205,0.1617305281823323,0.1305899881579283,0.0700592219147411,0.05162765420586589,0.27400089424878415,0.03133223418084015,0.26205134864311447,0.12743419978536893,0.06892915934064335
HALLMARK_ANGIOGENESIS,-0.0994250246814769,0.007716982680079007,-0.03860170081680701,-0.0035673957997293215,0.20819443295965284,-0.02967440737095507,-0.0484837653412653,0.25827592130675425,0.4893674048931879,0.02648936641424386,-0.03712068440517782,-0.0820762949803581,-0.08308477197821515,-0.1636991096597995,0.09562868680293354,0.0954593671140405,-0.21173324097269683,-0.04493485249445325,0.1288052756412649,0.11859161930155016,0.225857609137226,0.27982834917776844,-0.01361889431380231,0.20305497435486602,-0.1715261190495016,-0.1412262078336194
HALLMARK_APICAL_JUNCTION,0.2968347591593439,0.29873658898919603,0.6053351732896132,0.09592266056870193,0.1893328459776722,0.09277761167805267,0.14104136656568342,0.2601287964342618,0.5401072310193538,0.15379613115608334,0.029861322536738212,0.1300705992732618,0.3811246686285092,0.07127509715892595,0.4527523373185187,0.1825921582557323,0.31387893516661036,0.4074147995149065,0.10913650352160191,0.06072238761656136,0.3859716701899122,0.11609570220156122,0.0737292989951202,0.4024642893912499,0.16824279277360776,0.2102956904563733
HALLMARK_APICAL_SURFACE,0.20548411134871494,0.2731277099730529,0.3890667949037563,-0.014909983224502732,0.10730108153157189,0.14419628921241445,0.04990779610399331,-0.06032313041000729,-0.10336948527874065,0.0012386825661074804,0.09764604310952159,0.05992823465938693,0.354529011318811,-0.05564809392104507,0.07832161240057543,0.0397542237755621,0.025526032842003315,0.27372989015192944,0.05337129793237644,-0.005926471404408249,0.1407561193846521,0.009216618263291192,0.061993115143616176,0.3723791618479815,0.2612047280445185,0.043575023942647985
HALLMARK_APOPTOSIS,0.01732411499573642,0.09739305185341049,0.22865123341993,0.09363079052657239,-0.05703179731378074,-0.05374666970791398,0.0008799065119805492,-0.02043816289840113,0.1491367724685616,0.014465626630081423,0.0029721401730443252,0.012850982204841235,-0.006728386022903364,0.22374855903458152,0.12070738516387923,0.04764247216052674,0.11308389809238635,0.06307598184132429,0.10979571259737092,0.1524848635461135,0.16334026230462248,0.1996363959490909,0.0005859549518341273,0.14058824210913276,0.25909629529171235,0.03706778842370118
HALLMARK_BILE_ACID_METABOLISM,0.20542858071455083,0.22155794868262213,0.12964265958344223,-0.013834838969505808,0.1824878545807304,0.02966052219011207,0.04111351325119355,0.1392233083080135,0.4107886995339092,0.11733102335577594,-0.019126251101538788,0.00844407639423392,0.10692443055395012,-0.05730389354917593,0.1339507630170246,-0.06970200047797159,0.11393182675451247,0.1667350484503375,0.018514322100096656,-0.08209931039542685,0.048041798049607336,-0.02364259012802695,0.0010664718206574715,-0.03626067258520716,-0.02591962165179203,-0.030498474927802097
HALLMARK_CHOLESTEROL_HOMEOSTASIS,0.09280303884823599,0.2029499087201664,-0.022736695187305478,0.0706939710071901,0.09208854981308086,-0.04827944862232007,0.00565259457566912,0.16425954874284468,0.20440369804363168,0.05360045125842184,-0.0379189611849224,-0.03758267240949882,0.31759619500655945,-0.14456569814144646,-0.14156732516195566,-0.0051552189560285355,0.03643988272521437,0.13953238989452427,0.0384889221808416,-0.06200771604586323,0.007676727187615085,-0.12803223080323878,0.006721803605339627,-0.08013075844666832,-0.13498929409905241,-0.07232553688985514
HALLMARK_COAGULATION,-0.10498952915634822,0.2084979028916233,0.6340809000358981,0.05355848268427452,0.13002657769048134,0.19567205896335066,0.08803627514191237,0.2753070914686603,0.43074451298826216,0.1119819738224875,0.04412825827458009,-0.0363545140171286,0.32954044262262217,0.1584454349764748,0.4131159778789555,0.2534924956880027,0.34693919819863234,0.39456380939984687,0.16341215196526906,0.12235846416081958,0.4032776461746769,0.2977399195370464,0.08434277566116918,0.474454819241721,0.14187238655733528,-0.0488016669073744
HALLMARK_COMPLEMENT,-0.05271330073576537,0.1810019495477462,0.13929294070453996,0.02346045122139825,0.21172088768504344,0.09706722396038774,0.09218923549182302,0.1698659838341821,0.5551202141685291,0.04209142096984959,0.028501046532171264,-0.007994051172697598,0.284586545636573,0.1976884670998302,0.10298701586042791,-0.06988007432021179,0.2632066741427591,0.36216599973138747,0.06792086394076861,0.024032990493863676,0.3300011778212672,0.05325207530622712,0.06437638229151858,0.010204106889982913,0.0538265733817441,0.16481321514419495
HALLMARK_DNA_REPAIR,0.2600075021430018,0.2842289078221492,0.34519355577018584,0.11365989724897764,0.14210531275692204,-0.12217395938711519,0.06619030794098565,0.21637663613677324,0.5390118049569806,0.07576982763450342,0.028642115644792528,0.1496170781653706,0.3824463569595284,0.03467288238920574,0.17161635677915205,-0.007299977420538457,0.15442034386279152,0.3337226553996908,0.10018792929558626,0.014244903667913953,0.28815754593336923,-0.032821689530093415,0.06993777340255998,0.04000597322567427,-0.13126350950390944,0.18760243325818582
HALLMARK_E2F_TARGETS,0.2109135702428392,0.3009256566148518,0.3250725394131463,0.05494516804323353,0.18281886525879998,0.06587486714476588,0.029544900191898794,0.2656298966910572,0.4643988969604392,0.1296198595196595,0.015560859875913486,0.12891540680337374,0.33509386904902555,0.03843288581727971,0.05004519461649677,-0.014707038377076846,0.058390261796342574,0.24765874611610858,0.13599305417462848,0.040712841620360915,0.2409996639598317,-0.0028852256441136035,-0.033764936317852136,0.011906131314034467,-0.029005787104310253,0.03740391239237114
HALLMARK_EPITHELIAL_MESENCHYMAL_TRANSITION,0.2798761604021511,0.13057315780246492,0.5160665534959232,0.030604871187510253,0.03458634148483115,0.1165318730055831,0.08073263349958788,0.31239759595807387,0.5782745081163035,0.06642181577275799,0.01982770797533637,-0.02537686643277122,-0.0002307358657611147,0.06261365898189625,0.5139692694803017,0.5291322283280802,0.31674732456128685,0.39007144551947237,0.3529080261237917,0.30755694641173303,0.5304035690181845,0.48068863888225705,0.06298522156562095,0.532128498975817,0.050946540794985166,0.1140251996537365
HALLMARK_ESTROGEN_RESPONSE_EARLY,0.11640559008361075,0.12291967328658382,0.18197705221057656,0.028934114100720262,-0.0644305455639956,-0.023732770161652768,0.04854390928272935,3.248451058108127e-05,0.35176665087288544,0.004067850023168332,0.00029092628386224106,0.11476598073104312,-0.1667224636258663,0.2193286583377677,0.31580070375596103,0.09866749193493476,-0.006825289285360957,0.2299146724959917,0.055532833328145174,0.06132429541009182,0.3080404686813832,0.01165375140339327,0.008306639546989165,0.026956502283100002,-0.07331913171076998,0.09847948240046098
HALLMARK_ESTROGEN_RESPONSE_LATE,0.011600687159605334,0.25780600665634823,0.2978201676694714,0.05761817573937395,0.18461803990215495,0.04432393849699641,0.05091449002359911,0.09727131427545731,0.019147811623009416,0.04257704876088981,0.027218197478398945,0.02630662186831868,0.3146624879513017,-0.18592432859698624,-0.10132136374972527,-0.17435538418625193,-0.014619811606807248,0.1488900022811914,0.0735513908948649,0.001474146595197981,0.1444998604151207,0.12668766673360618,0.05723032299003056,-0.13657147978868459,0.010355489988250248,0.10105667186000894
HALLMARK_FATTY_ACID_METABOLISM,-0.04108997496073318,0.03819295435574229,-0.02260672324336307,0.00683169427690526,-0.16860766661212,-0.11281029022090566,0.1047182374470371,0.04845755662328918,0.2758035316234278,-0.023942984990788688,-0.009585229275809688,0.04665798950011737,-0.13575510357466866,0.16474941340280985,0.1281226872088697,-0.14936537769626076,-0.03064092601927882,0.13968143331565314,0.12055950555672983,0.09636580481343757,0.04106228473723405,-0.05480108940926722,0.004606680303351314,-0.08425871745895196,-0.20474716170457727,0.027905998216381914
HALLMARK_G2M_CHECKPOINT,0.21056908117830475,0.22768242148180323,0.2783654055107253,0.08046999885975731,0.13739702265712747,0.011520395910851598,0.07261395091993798,0.26022115538169516,0.4523220793272582,0.09222464294646998,0.014425156584362674,0.033334729237269815,0.3566185078479915,-0.02260887291220849,0.02672923254804215,-0.05188392041823657,0.10907460003446405,0.27909390312892846,0.09781506005574846,0.10977162702283014,0.2489313878926805,0.033159035198118254,0.0027397513580671253,-0.001267865149121689,-0.10835971307880109,0.14992969014126023
HALLMARK_GLYCOLYSIS,0.19284038434278392,0.1270583488010942,-0.08539584294576716,0.059447297427215315,-0.018101196164185505,-0.21653738830344457,-0.02226075232098742,0.04804524949213509,0.4270020900033569,0.09466542183733674,0.04315557123346452,0.15719878990232805,-0.023398838045497073,-0.11440906572803165,-0.0025258229187635713,-0.06614756841963167,-0.18218712795455935,0.16079416034181795,0.113910646290742,0.08700605198079883,0.15992189804795393,0.023059584430595317,0.03238378904837555,-0.050725254518810194,-0.10291080344567445,0.15518716837308918
HALLMARK_HEDGEHOG_SIGNALING,0.07514993576567053,0.1629870517041121,0.05997637920814417,0.09921688691793035,0.08247838315166982,-0.052612099340476205,0.058357540512354825,-0.1903729064050248,-0.10507997678982567,-0.02751359152611425,0.048885825815143766,0.12001217047450069,0.1927291483036226,0.051781240175894916,0.31470466964933974,0.1432528397172979,0.04856328579802469,0.22627683738546256,0.08459620987557652,0.07734553158094333,0.2603372149770885,-0.12538145077967594,0.03709084909077238,0.007708220327603711,0.2676367503912557,0.13900492776254184
HALLMARK_HEME_METABOLISM,0.07898549822760642,0.2699525679199872,0.3660927695762818,0.10107239596440493,0.09117492026380392,-0.028422124200060052,0.11610840068727735,0.08207500519901599,0.48730052837957233,0.09762769531514678,0.05882561565402006,0.15105918562784024,0.3005219018426143,0.010520789283474776,0.24539015468829084,-0.005404512599033448,0.11257991500948472,0.2826754193278468,0.03261125693810748,0.0037822502136759346,0.3028170627657193,-0.025809332863159357,0.07494913412707165,0.03309843975242224,0.03145880115995448,0.13591170391490248
HALLMARK_HYPOXIA,0.23312840291714704,-0.18812717909413085,-0.44654535279006613,-0.07585852286768713,-0.21962381983173762,-0.16581529856153052,-0.055739519777541574,-0.03025192250365169,-0.0012199858954226972,-0.0064647711509855125,0.0507796812086104,0.03340831927781735,-0.3427118527549673,-0.2044729424081007,0.1579384855899555,-0.012288284313472148,-0.25385129495536296,0.1343098439821396,0.073264456236343,0.0853514437272935,0.3522875651965236,0.14924300332089366,0.08074682216334786,-0.1340594000293751,-0.36926486664580754,0.1636148445363448
HALLMARK_IL2_STAT5_SIGNALING,0.0013462150181244843,0.17459583538470905,0.2934212772631451,0.0057744774675858096,0.1994062934032686,-0.10738230371547602,0.05194823262789112,0.12665478964432395,0.48105471347476214,0.05834048833349717,0.04575140673641287,0.031146840276222148,-0.029655667780374505,0.1723980690754058,0.10881492495903637,0.0771689595054002,0.19239379329626025,0.2056202817794064,0.08718426730896528,0.015168335767699105,0.05189066292980226,0.04966593773727789,0.064033576256362,0.056660931346997984,-0.032996550998053306,0.03805932479539976
HALLMARK_IL6_JAK_STAT3_SIGNALING,0.05398510380268616,0.024342886735650597,0.23201236835801758,0.062404446915070105,0.04087213975417545,0.07780481482336826,0.008405869539939834,0.2134633468771084,0.4259324437710814,0.0798493201013434,0.026977451754908705,-0.019725901191918416,0.11962417114774981,-0.0852376956479311,0.16658771027839372,0.14711083044211382,0.27258907737222227,0.18654077144044023,0.07710617990757057,0.025599386239884114,0.18501377605367594,0.2514304414639175,0.04837740810266952,0.017102054636539164,-0.1362548345030811,0.02147735025450098
HALLMARK_INFLAMMATORY_RESPONSE,0.06569512313583295,0.15498658181478192,0.24954087305537268,0.060771442704489496,0.0018269825083808793,-0.012273729369375375,-0.05100925017005325,-0.15034570530459376,0.2634559774488736,0.052757072306400705,0.00813797428659906,0.09500331479323469,0.05447518439374536,0.008161167773341622,-0.14969364342251593,-0.053675319904457584,0.1697134590563493,0.11946843325330575,0.07451291017553517,0.07964456765827564,0.29801133260838397,0.0012575443733323845,-0.03714532951990853,-0.026662280888930655,-0.18245039086527443,0.020159973769069937
HALLMARK_INTERFERON_ALPHA_RESPONSE,0.2276948647875561,0.327961650186243,0.44760253555707835,0.023426010850025512,0.20719992466705084,0.023435448679284335,0.09376872205014912,0.24796385333257254,0.4586207482145026,0.009634703693801112,0.029937476976644707,-0.019631817722357642,0.3996657240389267,0.011113284001516776,0.2532054214512993,0.008205089916342553,0.16379608089576256,0.24806781624042085,0.10624833308958345,-0.020153289926349932,-0.059156129791305245,0.18180275362089252,0.01725932768827742,0.26212096519288275,0.3041091624864902,-0.0512530543443194
HALLMARK_INTERFERON_GAMMA_RESPONSE,0.19339675893018834,0.14853196143301955,0.3076015255588117,0.028084057896066487,-0.021315071780747343,-0.03757907807992701,-0.011102690820753564,0.12773701516481414,0.5091682025841098,0.015588749423794436,0.01868877515213426,-0.04399206103295216,0.13506021231138682,0.014580312354980678,0.20729595068226433,0.0747270404035817,0.2648531537121562,0.24684583323091944,0.13788273037375076,0.15934907604165033,0.419898560485143,0.32750869662574866,0.037642079543600014,0.14171786288057864,-0.2073778942494362,0.07890404229412944
HALLMARK_KRAS_SIGNALING_DN,0.13351014808854397,0.30900659128951286,-0.041251148773629245,0.07734642766503248,0.009565149111442834,0.00038833493636889686,0.07923579773449313,-0.0336362743081109,-0.02515333196724236,0.03794455585976493,0.009382845079284287,0.16687559379208264,0.05290117421475349,-0.03724714601157814,-0.03501550861841226,-0.10554110330088042,0.08176455906629115,0.0975688447756967,0.008719433438718338,-0.020764346873368242,0.19634530635879088,-0.14292780973450442,0.07960568815344789,-0.11145563282540429,0.19979006535079868,0.1983928699120313
HALLMARK_KRAS_SIGNALING_UP,0.08578029169033353,0.20658430793359997,0.23090700703103212,0.09614042730438654,0.1690422364277025,-0.06979469954383628,0.08849197187782881,-0.1702408833902424,0.12957874439321482,0.04052988510688647,0.029190628981161898,0.11980684611057744,0.30492416922841203,0.21064012522664546,0.26708818964080483,0.1313174762562043,0.2035707073486951,0.29430572236415853,0.03700734309793382,-0.0036928567495129747,0.25659817809697577,0.08031793196555924,0.027085547958976393,0.3450132706002711,0.3695251787509336,0.19993676826715512
HALLMARK_MITOTIC_SPINDLE,0.13587064636237745,0.26815735931474266,0.4556942970315617,0.09021964416907853,0.12178704418965003,0.011579054581712654,0.12225237109661395,0.1755930923483167,0.43381950942736963,0.15353162471860496,0.019660570817800982,0.15331649258647212,0.3818817551586377,0.10151855017752291,0.22840650996730774,0.03687627203160438,0.1304780760070854,0.30459015482625595,0.09246883333879437,0.07571025874468033,0.17199462787140363,0.027421424036048032,0.004294043676844735,0.2056658471245047,0.1561638551978772,0.12178714696360624
HALLMARK_MTORC1_SIGNALING,0.18012200539619003,-0.04002962032377806,-0.23488806609371582,0.059648183341624604,-0.1728995463186155,-0.148164747005257,-0.09920971241700823,0.18227271915908022,0.4255464484487468,0.00853359040000082,0.03460111007710248,0.13515563264991717,-0.02497289401978097,-0.193003328530356,0.18100272063037792,0.10160502184832432,-0.1490843307745933,0.16182271382752517,0.16611671208718362,0.16257825916303476,0.052860681530271424,0.12078808201636902,0.03977956537133275,-0.03778964377165623,-0.2558284688456342,0.14813319358062751
HALLMARK_MYC_TARGETS_V1,0.20863968592086063,0.20185683155542009,0.2753384723992242,0.07843147885683074,0.09881568269380567,-0.09641368237201636,0.07009177273522078,0.2613345111077509,0.5226651095930103,0.06528218456965629,0.06643886273653658,0.1283462705120942,0.3983883228495769,0.03891259427336561,0.04217111667388802,-0.03615793330683225,0.09121795307489844,0.3132380885890008,0.0649719353012832,-0.020979999848172604,0.2043792775080542,-0.050464963515420604,0.07612394741694446,0.030600706795846117,-0.18745282706626198,0.21677807196774534
HALLMARK_MYC_TARGETS_V2,0.18136323029396462,-0.005369656275896183,0.28642026464072445,0.038633569833379164,0.14063745759512292,-0.022610379267603085,-0.023038438325971473,0.16126343710023092,0.24672022217152387,0.03207934947770973,0.014707231109495454,-0.023678907824266283,0.17655111232457443,-0.05143163274000791,0.018828487658642888,0.058053665123211626,0.08314148568039131,0.03226809895369815,0.07716922837421909,-0.04814463590735421,0.09585710397046047,0.05439158666178971,-0.04412850240335162,0.03987097934424628,-0.14010294145678923,-0.046085702448154936
HALLMARK_MYOGENESIS,0.13752712853349097,0.24303773434120016,0.6217203283578868,0.05205960024878982,0.23534971513020136,0.07910748563112585,0.1334487354578362,0.008504690545137663,-0.014430663687770743,-0.007673551926336185,0.07348060649524689,0.13138797860339965,0.23493239625032955,0.2700663773288089,0.46769041203374073,0.27377700903739877,0.24879237920052763,0.2665714475879041,0.11445280816263159,0.03203822961788485,0.23291247359449097,0.11115357038307484,0.01364997990209909,0.44409591871048437,0.49721438672687035,0.11491195804858388
HALLMARK_NOTCH_SIGNALING,0.26786292258203476,0.2715583397399406,0.4338319639281146,0.04124968613775861,0.20631665005616018,0.06114498295384561,0.07276260462210045,0.1451064070638497,0.4553659841334524,0.048542667422917574,0.06332777728496504,0.16376327419383285,0.35633984380541683,0.05536042217540067,0.19101854243867075,0.1017416823604645,0.1088710082729339,0.3509634790728179,0.02324425449672325,-0.020636122331308914,0.22632567472229798,0.052409429662285054,0.01097030928255824,0.178405218287323,-0.0802850677259161,0.052622257547185004
HALLMARK_OXIDATIVE_PHOSPHORYLATION,0.2606108098885286,0.3173253834422157,0.20332828829212363,0.07784586493573403,0.15846214134255945,-0.07452104673305346,0.04848480782264309,0.03660434979651877,0.13265935321548863,-0.011284838031768196,0.08057433763918141,0.15345660127015825,0.37510478806658176,0.1761368203040758,0.013250504686255724,-0.10844054407758523,0.11195531058273685,0.2885863966715043,0.03794335118870451,-0.03613153763442011,0.20426580872206773,-0.1197071731110192,0.09901345711340324,0.004721324348395722,-0.019662173983916002,0.25401851832996913
HALLMARK_P53_PATHWAY,0.027850474122274663,-0.020084912230432964,0.0405760355420217,0.03234623846334908,-0.0032208081437499216,-0.04393670823529617,0.06300988486197903,0.21863222699562496,0.522912291927413,-0.019245913965347295,0.03424889768329907,0.001766960915512013,0.12317869681914155,0.09065921651510646,-0.007425146682417146,-0.10970745121404789,0.07277030765719511,0.2315602806588118,0.04416477124484956,-0.020910421413509697,0.2312889372987712,-0.04364970531494472,0.1664968110501412,-0.059845644243646044,-0.28004457116282894,0.17543849080606502
HALLMARK_PANCREAS_BETA_CELLS,0.14955687353102096,0.26243318163619206,0.25392293145562467,0.10090389473258402,0.11839927777535404,0.04185433031085244,0.0866154672765507,-0.10732052146547169,-0.018161956896376775,-0.027045277421668602,0.02827525691271062,0.12157446141853862,0.3580287785074685,0.1984953907600584,0.09953336218676177,-0.03425366424084251,0.1794215124155824,0.21015795959573833,-0.0207041224285795,-0.05340382728679573,0.2214751910197552,-0.24545397231971028,0.02591494135311552,-0.09008317224346171,0.2212234884783328,0.25006325971337806
HALLMARK_PEROXISOME,0.029500022354036964,0.13255226457420805,0.2927066075482537,0.038841741187812556,0.11901564731249363,0.05502380928163468,0.0418155234528039,0.08410037026261648,0.2807718810343105,-0.010852350829590362,0.08652661586426745,0.02004253049216982,0.17028387220587907,0.026647953720204103,0.05368680672313484,-0.04484639432677341,-0.03314520270535632,0.16991429673834307,-0.007068427713425625,-0.010866103136353911,0.02971188683719593,-0.048798707555121924,0.050532869116993145,0.04628181015688151,-0.07413441745306264,0.19039455691569826
HALLMARK_PI3K_AKT_MTOR_SIGNALING,0.24499107252122548,0.31485101415752453,0.3718439577387071,0.09994822528951744,0.17686731788252405,0.028199376817292367,0.0899782519561596,0.035982736865597144,0.3308856514313185,0.11149125777960338,0.07322076352146159,0.14345300170920258,0.3484063695252725,0.19717480972711768,0.23235248544772003,0.12812881674361395,0.1890295994389959,0.3574119356325664,0.09324222679446582,0.008184296975510541,0.25841534496035556,-0.028608795911864087,0.05807906665322371,0.23760346812799527,0.13555378504084703,0.2005148806321988
HALLMARK_PROTEIN_SECRETION,0.2463779698500697,0.3278129432516578,0.24815172596120016,0.07561202705058688,0.1207219643031827,-0.10591828811619597,0.1062496332858183,0.03836741613803815,0.48784327419591417,0.012231834052461836,0.04418388807042785,0.16811233264345277,0.38430462253870956,0.0558989697026789,0.17708026874438715,0.027877492688284267,0.06192092428497117,0.2890446097043376,0.09554962418493251,0.030979353824015343,0.2666408042003833,-0.004946382707140426,0.084675968262004,0.06803682575312849,-0.014258055444958598,0.17411516565652593
HALLMARK_REACTIVE_OXYGEN_SPECIES_PATHWAY,-0.233243539908901,-0.07820096259059255,0.10069703420716695,0.05065237581891982,-0.01562890767686891,-0.11186310527517279,-0.03262130746269367,0.12124908149360544,-0.20934865200711006,-0.026934528761242697,0.03722183336206185,-0.047718836510585144,0.2653198926007122,0.27833759214271325,0.023961382464593253,-0.0679270063730614,0.08775534965824075,0.010529822547661848,0.027126884939545362,-0.052658721136033634,-0.31448905567162433,-0.18037286219363136,0.07404779400979063,6.638165465440184e-05,-0.1408935870705434,-0.17574669679770183
HALLMARK_SPERMATOGENESIS,0.07238313709338856,0.22379177778845677,0.24527862014914983,0.03761070455153911,0.15389166424038023,-0.04825750747306389,0.05851349968868159,0.03150764922565604,0.21574185192004022,0.0360351961554005,0.08059352948094378,0.14509831665753037,0.3777134645837951,0.1397155667782109,0.04647013032854183,-0.030072044510227592,0.05863219194940852,0.1229782046006025,0.014196536624800287,-0.046970197409560537,-0.028358448111788066,-0.10821245492029644,0.014269072168481214,-0.06742138832280468,0.11527338211231052,0.08359114957311015
HALLMARK_TGF_BETA_SIGNALING,0.19771158619559917,0.2685486114168482,0.5992015661088371,0.06979600314477644,0.22953803573877002,0.13282231628173544,0.1120790441695549,0.22593136896730012,0.5352114842181436,0.1001409497589908,0.08455808135952321,0.06140113000575087,0.32273372437155684,0.03287147906596916,0.3376814545649207,0.20220084500242197,0.2754525125809495,0.2872625094848623,0.03539937367566359,0.02239961039315381,0.2563959198790935,0.1985498096213302,0.04376769537372679,0.4331849244435462,0.14873820306909374,0.10847423226229695
HALLMARK_TNFA_SIGNALING_VIA_NFKB,-0.10981743808139947,-0.10216426448268466,0.18164771686663117,0.06236481122247591,-0.10264233328606168,-0.02771622342041357,-0.0037047494887654745,0.08526373229860687,-0.15334589942308532,0.06315356264580088,0.017137588214288114,-0.014502825940468887,0.10738999106242428,-0.15418839923366887,-0.07563432909253737,-0.0204274119399745,0.022216924919823897,-0.029451350768895157,-0.020981367118044787,0.020437983961399477,0.14878873620655328,0.15263514765021335,0.1084252028734785,-0.3319362601461103,-0.31829593588901045,-0.02792925504838793
HALLMARK_UNFOLDED_PROTEIN_RESPONSE,0.23901915491629105,0.10451025386688922,0.26809766461392787,0.09496068128305261,-0.008176433174049308,-0.09087268242598935,0.02184946775313741,0.20563550373854028,0.49978284385178456,0.04853361262549724,0.0720287981199301,0.13561255460895608,0.3361273496604967,-0.015866126538076928,0.18507031072491872,0.07967470590254323,0.2175546977550161,0.2330832118042408,0.1108206044715723,0.03491336162906036,0.2822215373540924,0.08768867837412309,0.06062898816926763,0.14380488428641813,-0.15707791020388978,0.19387115179296444
HALLMARK_UV_RESPONSE_DN,0.15055069680732075,0.22216426937973952,0.42086018768008776,0.06253288123637542,0.16071474503024222,0.1350598120218314,0.13329790314068957,-0.05507241366916048,0.16636032813841764,0.03548643003760756,0.04988811423334819,0.1203234505240199,-0.02967813996337231,0.187495888273695,0.3957300345063043,0.15173773213964264,0.12268012522929282,0.27283876414580793,0.11056870267535605,0.08375267918477593,0.21004328525962987,0.24451273295219775,0.033060187706466265,0.2878682867720782,0.15067726312637086,0.16187900805190433
HALLMARK_UV_RESPONSE_UP,0.12687876110724303,0.17884767475452848,0.09213355340973249,0.0738527508683112,0.05462750335526355,-0.06274847239740242,0.07213113315899208,0.036124487138413645,-0.13341036899794195,0.01538897071176484,0.04763618944468243,0.1632412180625131,0.19414610445688066,0.11394670677718297,0.04319910038236153,0.07498721765055079,0.061136779103719174,0.21607294237105176,0.08761732085945334,0.07937227981722081,0.16181386712619827,-0.07077915217553854,0.04894120699177822,-0.09671207258550775,0.011017904024955418,0.1634564307962618
HALLMARK_WNT_BETA_CATENIN_SIGNALING,0.1412227806527392,0.17460854194623515,0.3641551950215766,0.04258098587652577,0.011467161980574627,0.12707295791952272,0.07602715982045401,0.21673584354425304,0.3939781555475852,0.03874433499735546,-0.012877883474999017,0.12291411337993587,-0.014466470976470141,-0.14263905920453904,0.16453812169514473,-0.04961141000176413,0.08834011657541271,0.15864056819506742,-0.06819817585984829,-0.01754385155350972,0.20477941825159393,0.10979793831050184,-0.04220905442761169,0.15752022995512602,-0.018449809564650935,-0.022051420787493146
HALLMARK_XENOBIOTIC_METABOLISM,0.09823223082725432,0.26886307202008947,0.09577601897485157,0.03254385256294335,0.07174603572891507,-0.12315761327028477,-0.0022662545595671384,0.12730760770116864,0.29744511460232287,-0.029870468208631932,0.007063361743783258,-0.009815044876842012,0.2569206538992731,0.10175946377524094,0.027287461657845617,0.03964556854978842,0.05740311917846391,0.14274093039186375,0.09372008064620292,0.03686664757756711,0.24259614220467637,0.04364905487468255,0.022573918067992898,-0.0392942998108673,-0.040651838121828224,0.04123496616192798
