,MGH258,UKF243,UKF248,UKF251,UKF255,UKF259,UKF260,UKF266,UKF269,UKF275,UKF296,UKF304,UKF313,UKF334,ZH1007inf,ZH1007nec,ZH1019T1,ZH1019inf,ZH8811Abulk,ZH8811Bbulk,ZH8812bulk,ZH881T1,ZH881inf,ZH916T1,ZH916bulk,ZH916inf
HALLMARK_ADIPOGENESIS,0.04001085187668286,0.06774651412446081,0.1340222917739475,0.020591272554120525,0.2953323300989247,0.018853260384413505,0.338334318726069,0.12954906748526795,-0.018593259698445722,0.17030210707331966,-0.008080640789338225,0.2963179599532929,0.217702213178459,0.1609271858183769,0.008601574682166565,0.11206085805896816,0.08958675806123971,0.12727388233407708,0.24592474297007053,0.28602417759617316,0.07357834127372403,0.020107065082893304,0.09405171197425449,0.21469699219475882,-0.10232804683727982,0.15394259215531736
HALLMARK_ALLOGRAFT_REJECTION,0.015560138436814884,0.11121632938463064,-0.07812299238906542,-0.04440304895607635,0.2357327375877994,-0.005898342329967774,0.13345127164149842,-0.20202324125785764,-0.18784938330242806,0.13452178045197405,-0.10933504682000875,-0.5931110530417643,0.24165307601734554,-0.12571815675606693,0.08381955822211251,0.06672863255827828,-0.07916065896895579,0.11428993184475003,0.24501149101764527,0.19182255876468268,0.010475161120965488,-0.14572404363890498,-0.019228558896462113,0.17970959661341632,0.14558114243184545,-0.05138505739912995
HALLMARK_ANDROGEN_RESPONSE,0.04897401153622616,0.03212408092076881,0.09606564589152998,0.012048675397425162,0.11552803492241637,0.05789395668584612,0.21099399360107182,0.0380080065969066,-0.11806064363642317,0.01681455311145252,-0.08581913579056993,-0.2480768179317681,0.23062709674820078,-0.10698002341636802,0.057700350681544346,0.11122841622558476,0.08877349017940256,0.1366238734435984,0.07233642720506145,0.11306522315300377,0.031258576265278434,-0.11559916468145587,0.0324133530545114,0.20234398312642618,-0.13417323944524429,0.018047644809908038
HALLMARK_ANGIOGENESIS,0.080852624400793,-0.09208071095419554,-0.030904823809365038,0.08318740684903518,0.2909900670996598,-0.011165550585505824,-0.30818704501424826,-0.038833820781959065,-0.24454786562707778,-0.28720251687268883,-0.11455856909574072,-0.6642675030073899,0.0007244060297906329,-0.3006599641985837,0.08244029669565973,0.02476286036791319,0.02009327652074317,0.030085341992301107,-0.2747815287731547,-0.32271566451811223,0.04239135263926266,-0.2606173847430334,-0.01949638859139967,-0.032164304248533705,-0.21402163890658432,-0.17358048717678767
HALLMARK_APICAL_JUNCTION,0.013893323349261001,0.04080436998335285,0.08421998867543548,0.026717979824550927,0.3152569356644204,0.09449644319947823,0.1706072013221187,0.03556950063519786,-0.13644223493500388,-0.08208542747003153,0.04573820417389826,0.09350132592407658,0.28660880582075404,-0.1682811372181619,0.08599160372481524,0.06042941653276013,0.04451648664311644,0.15774343157778326,0.14103012557451602,0.2052243626552091,0.09601627753525616,0.11637871279323476,0.026543678152334185,0.23550105504025998,-0.12289180618984932,0.16695526523660492
HALLMARK_APICAL_SURFACE,0.000304435631485979,0.1601113606838443,0.20694422063063747,-0.016839166474433825,0.2089783126315159,0.06151246437551739,0.2317887161407863,0.15832013628679614,0.21366508676023532,0.2329874051206057,0.16816837341617702,0.3663232946209124,0.266512630136633,-0.05566552353072487,-0.020491437815069364,0.07561323573726461,0.08735692048371708,0.09084710438509226,0.1254964492032063,0.2084204427834611,0.02231120075102602,0.014365652489528629,0.02503059485400715,0.19287794526258314,0.1151814859767026,0.0657462727361251
HALLMARK_APOPTOSIS,-0.013740365298544192,0.04678094410076511,-0.10483576666029885,-0.0368373361381992,-0.2621401037851466,0.007944265955323377,-0.3001312607927431,-0.05314294832127925,-0.05096339599580847,-0.17311240560152086,-0.04119106924180697,-0.11088623967903434,-0.0212905467172458,0.1992659801547879,0.09730486501358251,-0.06619327615872367,0.010099478725956665,-0.0022272141790931873,-0.3450955228197721,-0.34486812385856314,0.07468252075036211,-0.11249231338463764,0.0503344769153961,0.1475207835345138,0.09029526055092987,0.12245082529868251
HALLMARK_BILE_ACID_METABOLISM,-0.012393305921391864,0.009617661496789187,0.19265954763014614,-0.0023895133145806955,0.2762833161220058,0.010126995499803775,0.2919698260149857,0.0371687037325398,-0.1915265238599094,-0.05195780741248663,-0.10071144871569736,-0.17039192965075103,0.08733927964079315,-0.10661277418121842,-0.03177018439348915,0.07510696647408845,0.05297686296815087,0.08523926946484739,0.13086708945786782,0.24517278342282903,0.02058756237704122,0.07828119036604007,0.015665706619639785,0.20660217986823878,-0.2470859132483465,0.023303079702111422
HALLMARK_CHOLESTEROL_HOMEOSTASIS,0.11383349668581597,-0.01710254843422148,0.23016965187911234,-0.03610694052870519,0.17896095059985326,0.034139037089731684,0.23139511844176278,0.01814148090262658,-0.13171074444489242,-0.2590310708566462,-0.07715859786254924,-0.45296584619342856,0.2255655290674082,-0.23346363715328367,-0.002989372429091019,0.06571231548765476,0.05049782897400226,0.11501644865699132,0.20368968393713366,0.2991989459533693,0.052381508891859455,0.1141884666219198,0.07362372975030587,0.1691136372650955,-0.2639738517919886,0.0020554336522921
HALLMARK_COAGULATION,0.08235655730522068,-0.052756108442417314,-0.02864319900437837,-0.0286241283652532,0.12358746406651333,-0.0012755673828066228,-0.06538469576170748,-0.16989864855349873,-0.2481240502071872,-0.004966715183977188,-0.17578244100115062,-0.6346345432899102,0.17933239025130918,-0.22030058061114555,0.24177235385937867,0.09875544158645436,-0.03420788560910043,0.0808029469283867,0.032509015883488285,0.08925526833949854,0.11316801945396936,-0.2000130867287503,0.03759419474056254,0.17826968858219788,-0.060855460403614704,-0.1415000140905262
HALLMARK_COMPLEMENT,0.08540286549511242,0.0929391839826409,0.10003738755203051,0.02467429511697671,0.23305660777520298,0.014843722746123018,0.09695361972031846,-0.05168960266745492,-0.1284617789983889,-0.18819849803819028,-0.009281363764248927,-0.39263949341468174,0.20247664407662075,0.06477555138502661,0.08907694764446736,0.08820548851148177,0.03432345827901858,0.07422464186851867,0.049954823091070896,0.06436886407357086,0.07200036814156804,-0.10736455091558879,0.012221636753724388,0.19707151894410171,-0.009935840480663368,0.16983480657716998
HALLMARK_DNA_REPAIR,0.048000255148250785,0.053574969904839974,0.17870029965670972,-0.008720754088126597,0.2517129735900212,0.04797434620959819,0.2198022058879667,0.05506219946128458,-0.04851075571594184,0.058995643947725294,-0.03145098043255858,0.3188868363202274,0.27542366324559275,-0.11394582161747466,-0.10082839452521998,0.09392237032460063,0.06147397875479651,0.10305325887008383,0.17040469729401309,0.22964640928062796,0.09986247837958787,0.10517032232760525,0.06174551538592306,0.1971274712103551,-0.3497692203009551,0.1839500509071249
HALLMARK_E2F_TARGETS,0.06132259202075632,0.10848230739345256,0.18554655367582124,-0.004000261335768696,0.4042475020804175,0.06718580852010232,0.31994770386368465,-0.024690354355385042,-0.10333452791226522,0.024134309676400557,0.043040930756247014,0.46470323534908486,0.240005749459274,-0.15207069861387887,-0.2076752645822509,0.048973607918951376,-0.01893844295042319,0.08187643643156256,-0.0002478854725759323,0.1287910384266013,-0.00274031913432657,0.10036746458989441,0.013117294190227642,0.17312069792781415,-0.2813053487168244,0.1933734815129816
HALLMARK_EPITHELIAL_MESENCHYMAL_TRANSITION,-0.00117484876754418,-0.15561534037959723,-0.16123315848132785,0.03377442138903689,-0.3050543983541061,0.004657520788550268,-0.33768592041069134,-0.12946453706299,-0.16416255612569738,-0.3049922442847634,-0.15974809221085298,-0.5021145890780421,0.011340808714300557,-0.2828185030858478,0.13055149538685293,-0.012364705080538997,0.033982269589653204,0.07067426833377581,-0.5470812222639173,-0.5436192459052452,0.09136950954626094,-0.31059164127192007,0.04335424366554193,0.15560731227450594,-0.24386210967584504,0.01788161482055375
HALLMARK_ESTROGEN_RESPONSE_EARLY,0.021468705138006982,0.05818427456777386,0.04007797142893893,-0.02084248781018018,0.09966289765811881,0.004571575568093881,0.28582508675416396,0.0847955115898402,-0.025780242256441623,0.0635782641939279,-0.04293699924196241,0.515500107781807,-0.1548009784918324,0.3779911251781705,0.16828025550256348,0.05150406352826373,0.050014175011008216,0.04470044700857529,-0.00945854107377983,0.017631663706625732,0.09112723853458905,0.13325592644908987,0.06998162861991025,0.19257562870336822,-0.22949766190774978,0.03183734704933066
HALLMARK_ESTROGEN_RESPONSE_LATE,0.10238441573463601,0.134183728773697,0.13050761215873774,0.03543468691917893,0.2795513411281876,0.05349350336246905,0.02930684938555004,0.03797331861623617,0.1881074177344423,0.08928780086686629,0.019090947946610128,-0.15293419943045597,0.2261727769180487,-0.1955146112311116,-0.12361237441315352,0.046472350784338534,0.011753082128646033,0.13170797426377917,0.17117252717001294,0.2508680088956303,0.09497188769272522,-0.11404252955582937,-0.02728844953469827,0.13851060093793716,-0.03565591928298004,0.10847347834344007
HALLMARK_FATTY_ACID_METABOLISM,0.08688138239506873,-0.0048460801568104474,-0.06032705488571467,0.07568439712542471,-0.3105379804537567,0.030322732648767454,-0.023973612219986607,0.034605861676042876,-0.15839203946439642,-0.24337895094043954,0.01399953691732875,0.03394192798643323,-0.1253081470659338,0.26967547007888276,0.13106416091362605,0.02869479405228595,0.10116738104599718,0.06277068950877725,-0.3736341082632197,-0.2870360913044804,0.09093094953062969,0.08308808359296034,0.07525460658608031,0.09189557725916717,-0.15500501768781003,-0.062111722129912325
HALLMARK_G2M_CHECKPOINT,0.0007953049379225995,0.011249777691222816,0.19414166323264492,0.00011910835370975133,0.24525473729902939,0.04329118750666344,0.061741363473197856,-0.048347700242442886,-0.13971834786934592,-0.14176358547683343,-0.08214414708423798,-0.01876930454998388,0.23871353874783502,-0.26195523458195275,-0.08015138680964594,0.11302328042355078,0.029658273724122733,0.06867145776629693,-0.039978262427366545,0.053422923329893186,0.09901451758489677,0.09879132078869547,0.031022467789473145,0.17285491744200285,-0.3233088911454854,0.14016551171826847
HALLMARK_GLYCOLYSIS,-0.010428145943665295,-0.01791798779652138,0.15691187436102907,0.05937733898207376,0.05953119441192135,0.024717673706543136,-0.014345118448214117,0.12829106909152674,-0.017323751308736163,0.04651462551108127,0.141286841695207,0.619016938602272,0.030114502773334866,0.049511498107135093,-0.12647932472161258,-0.04032298918032983,0.08539209533341387,0.07351940058735092,-0.09361897833002303,0.01911127688276922,0.06211073398593156,0.051519237997286416,0.010458277600682022,0.18311640405236304,-0.09599300594614621,0.16464552824995543
HALLMARK_HEDGEHOG_SIGNALING,0.13964163396511917,0.18891632612326748,0.28351814329822245,0.061333325094485136,0.2947201028500146,0.1589668979255033,0.3195553999495656,0.18540205174705535,0.269800678014875,0.3021180214930776,0.20568983602990626,0.7173654770026398,0.04638943369024509,0.3957188046726803,0.16304663836339536,0.003159357074497399,0.05664497910720474,0.07954736295682106,0.07148722396499686,0.12569953097597455,0.12442334682731133,0.23983803482331847,0.09347461611379389,0.166518884388407,0.4048576829934224,0.18633070075554056
HALLMARK_HEME_METABOLISM,0.03958399105488532,0.03905355589131372,0.183154499391686,-0.003021435416262555,0.1473066690002656,0.08733325466682197,0.28718969255399535,0.13288526591268215,-0.05495057043688455,0.17180076773293357,-0.03824175567305949,0.29306330660819113,0.16034369112769534,0.027994689566817662,0.07420211046864104,0.08919005328466634,0.08714498414653116,0.1417377537360149,0.13796937813415772,0.23295573234200181,0.09597974848947517,0.11078787320886344,0.11056182031362198,0.1959768942347887,0.0464292897059484,0.20025484765053367
HALLMARK_HYPOXIA,-0.054395808513505936,-0.21689691526635027,-0.10246774589147951,0.036570078136620277,-0.4200635339287094,-0.033497482153725194,-0.3437413577536659,0.026949111314937924,0.1435416271282873,-0.2741289332147287,0.04977590261718267,0.08594962482229619,-0.22147764849153803,-0.21528880387119365,-0.05013142727205607,-0.09186102481380874,0.003142431262550301,0.02811469902203229,-0.4340016598117502,-0.4750991351794523,0.055237339019672704,-0.1582032349225087,0.041604616490432234,0.02252678888342223,-0.4330269769924724,0.09229379862914419
HALLMARK_IL2_STAT5_SIGNALING,0.08030214052725693,0.07382532413571444,0.10561534059908803,0.023079329790319496,0.3114534539762881,0.023990541686905405,0.14493761652227666,0.07762667057364757,-0.13993207980880223,-0.012690492364111619,0.05268220093447624,-0.19334504989257054,0.034806908969455985,0.05294022283957139,0.07588172436123153,0.0718857400863038,0.06638837767865727,0.13400171233683614,0.0571421006415094,0.16036199687012484,0.05456508638026758,-0.016303896968776915,0.05555142584587512,0.18371906600351515,-0.18999894307720522,0.06445108027593575
HALLMARK_IL6_JAK_STAT3_SIGNALING,-0.013889526896623003,-0.1198404373167587,-0.05149354245623912,-0.004798648876517644,0.04948716513318434,-0.023277743986333532,-0.2524934843388999,-0.17441116428614892,-0.2717466323308915,-0.1692905462876179,-0.11460948324896941,-0.556267665925413,0.08228810908174199,-0.3240733028865772,0.16851840722734296,0.024121843901667175,-0.003103734995996213,0.0017330995418987207,0.03662086402522218,0.18502235946023823,0.025015160292666976,-0.18281130315024563,-0.00974929274702921,0.12969652879798674,-0.26579505447710355,-0.11852342773830254
HALLMARK_INFLAMMATORY_RESPONSE,0.019279121160661553,-0.028173061128351527,-0.09715126472689127,0.01395787033543801,-0.09954149914503481,-0.01711676076132781,-0.14711103269719786,0.15790912893713782,-0.09975065541554014,-0.2617466653112564,-0.01515694890361319,0.27236202176405466,0.013232113969853892,0.028975885251276513,-0.08020932086005447,0.05572192793842351,-0.0017876265889382862,0.07665369643373005,-0.39294702491489086,-0.23551027335836947,0.08863969020187237,-0.011963210443284437,0.06661542318472481,0.0651961781558065,-0.13227636078154847,0.027957160138443477
HALLMARK_INTERFERON_ALPHA_RESPONSE,-0.04999443116430159,0.18037505348196559,0.12183651242870754,0.004058201496161536,0.34727067965086156,0.04764438244679575,0.3333034262762712,-0.010825885591476788,-0.20916538402510035,0.14832304447297323,-0.14336023432334927,-0.5581589588921767,0.2860392480941195,-0.18388994793944377,0.11716787419047248,0.03447260576160805,0.005205024850642234,0.09168828886176501,0.2732275622312567,0.3392253098852556,0.02854285513833647,-0.044399552126135174,-0.007188276189954455,0.21747410888071048,0.06149628099629158,-0.07778150040581513
HALLMARK_INTERFERON_GAMMA_RESPONSE,-0.05433911032562216,-0.13391695429592468,-0.05764350807678134,0.0033359914916283526,-0.23693966648632775,0.014026259238646402,-0.37881225929828166,-0.13096781324455012,-0.20037281113790464,-0.11854420377073792,-0.08936870877646404,-0.5192102992954327,0.13754011969953767,-0.3637136064156661,0.09525787083441636,-0.010319127859468064,0.04092056134696707,0.025256021213665877,-0.34975279774958995,-0.2731567827023668,0.05339841302219056,-0.2578556893040961,0.0450395994110438,0.12824693121102573,-0.37156856531201476,0.1943063850860558
HALLMARK_KRAS_SIGNALING_DN,0.09037737820121403,0.10537649307316095,0.25820580289298717,-0.07459524357385486,0.24676639664011074,0.09258565620442065,0.39799841083665893,0.14349932147798816,0.13003007563571567,0.12038096129062384,0.09088429178631742,0.6230627099220682,0.08232545738256751,0.05969909723586859,0.061317244819010824,0.10353816009260611,0.039570603804864955,0.11591362498256516,0.2612402702642252,0.32106936442658246,0.11230694425009195,0.18039535781226615,-0.01195848416298733,0.19915404741466605,0.16889809185809268,0.20526809014924768
HALLMARK_KRAS_SIGNALING_UP,0.026750735198384588,0.23142752937205885,0.08217783322770641,0.08526039650246332,0.30364474574702366,0.06769900468099363,0.26524999735570326,0.2101685066261389,0.17989250590923306,0.2367617574583639,0.18195293152768457,0.5591886167819083,0.19777782629349275,0.3676529314011689,0.1361118931840571,0.06671348358796828,0.01846293486121662,0.17707636894197612,0.20032356201948903,0.287589751276716,0.10840535395037737,0.0712238650126823,0.09233919695281805,0.21439942048889582,0.295274275120526,0.26906056424884506
HALLMARK_MITOTIC_SPINDLE,0.11517691440005946,0.1442243835666485,0.1442251062295713,0.046016153839376975,0.3181935129179066,0.11414578241092489,0.36796541300372737,0.056444188618527756,-0.07046777234426857,0.01436512723695608,0.06364683719074515,0.338443432354684,0.272909126473749,0.05693095787744379,0.15745561046404347,0.11664543610549324,0.07684626587509366,0.1762852959699996,0.12042037946229144,0.19970258351737163,0.08639253909370691,0.1727371804390564,0.07547764298593192,0.22677556247380448,-0.0005407071562080376,0.1814150239964593
HALLMARK_MTORC1_SIGNALING,0.014821998401262516,-0.08036928600402621,0.06095865123040131,0.025323702246967863,-0.2623187260123889,0.036685162070771805,-0.2885591014122389,0.05645601151621929,-0.08218576182609794,-0.22296582642300303,0.056405790590698814,0.3288429905610293,-0.010595521955644074,-0.23774134024501006,0.01839859230300613,-0.020399400227024727,0.022210772849354257,0.05816775341009875,-0.41844243454529323,-0.279069928519779,0.05715674683482035,-0.09957505005687038,0.06340487177733208,0.10871424940110859,-0.2788864741380605,0.1178872201966023
HALLMARK_MYC_TARGETS_V1,0.07287525134007085,0.05739057185913742,0.1393641271179907,-0.01747200335547751,0.2982047159114277,0.06144752528617514,0.18961396600836916,0.004357801144778198,-0.05186545651951742,0.08968946486793206,-0.04731967086827335,0.3059539047706193,0.27276736800787094,-0.2113603542033947,-0.18987374482466982,0.07956484846988574,0.04368509138704917,0.17612730767456491,0.28233323989649095,0.2810907238538973,0.0426935477271669,0.14183623809027623,0.07108403009786152,0.17787866051789603,-0.36706450029906307,0.18116802245845068
HALLMARK_MYC_TARGETS_V2,0.030509045653612562,-0.05403952965607893,0.07730588447358985,0.03528707537681671,0.29549885355048183,0.000993887086883363,0.03201162720297774,-0.0494470984401516,0.007597892596337115,0.012000423920840341,-0.11453380354709428,0.06790027279698413,0.10276794456405042,-0.1655441253649746,-0.13704385067650532,-0.003739568900151376,0.029796609959798524,0.012355450843073849,0.05536643336244024,0.20797279947914288,0.037547158489998664,0.05968683892901362,-0.001411881453952055,0.12549276671878878,-0.26066173352973115,0.0462639966988411
HALLMARK_MYOGENESIS,0.03757836294417421,0.13087909430010303,0.0011558779931844373,-0.024175419501870094,0.25544806852580687,0.08285121978427643,0.26687637995722924,0.024084775127995475,0.09129049574513431,0.2049978693043392,-0.034732649368565516,0.266347292032211,0.14101927496614056,0.2958709069591462,0.18853619983538225,0.11903138153270727,0.07746861063245729,0.08501955565155908,0.27588974114307674,0.27692371735495236,0.08727372459881937,0.110068556220327,0.027008315046766932,0.20837801188493035,0.2602365559118561,0.16526788968325967
HALLMARK_NOTCH_SIGNALING,5.030197138524212e-05,0.0611326691495836,0.16787078026157243,0.01772033844682,0.39702200340372207,0.08666621882603338,0.32125395524247763,-0.05007285415990489,-0.09807153628780317,0.16383001176091583,-0.0706890307926605,0.12836622350445226,0.2589028495799902,-0.09822637606096342,-0.03593001898293357,0.05218525921112436,-0.009132211192731145,0.11395037292111229,0.25754579006193645,0.2911502357997585,0.005722434531570231,0.029204232696721396,0.006754460075887531,0.23526122838704758,-0.3263837091197241,0.025722968998939423
HALLMARK_OXIDATIVE_PHOSPHORYLATION,0.0437415540592675,0.1794116367459412,0.18763474927584753,0.01385185574903804,0.3208449565078128,0.03208582334138928,0.3771090989945321,0.09776525336085111,0.2611332370709338,0.27068129461147117,0.06216073708222551,0.6125179559197896,0.26781260497037457,0.20444310482173045,-0.21693695460030446,0.015683025442938044,0.03827965560081123,0.16309550105065457,0.3344411985648089,0.32589828671626464,0.01187878942501185,0.10969009790766748,0.06807472780263898,0.1923826951438653,-0.13564669890847217,0.21034069827810745
HALLMARK_P53_PATHWAY,0.08742409687958451,-0.02872014184263611,0.04942963561128886,-0.0047684771607151705,-0.045033156014091816,0.019945528783907217,0.15407768666083818,-0.0551789817497816,-0.10311970402423705,-0.07137167448056286,-0.0358377632349242,-0.0791989667832729,0.0977079967682098,-0.06598892454029547,-0.09429067264101398,0.02888557922407721,0.05693356295543344,0.0628163702779307,0.15000751825545505,0.16455716117976715,0.06637833386878213,0.004154382428375293,0.04300255750123582,0.16942133608680374,-0.33589003721509086,0.18845967204078326
HALLMARK_PANCREAS_BETA_CELLS,0.10053303852067522,0.27490396013551754,0.23312856838635412,-0.012994860517012713,0.2760970930133027,0.1020252642130116,0.33155537608835645,0.15826411378975747,0.3352635885796778,0.2906190401869485,0.054657197524795934,0.6566343710882296,0.28888929324075785,0.26153194832178267,-0.1673617165503429,0.07050683585583947,-0.02399600280104598,0.1295157888017521,0.42118998188444207,0.39450268146184303,0.12092166723309677,0.29442730673601647,0.0654436402067478,0.1777572128034545,0.3030528059559715,0.21481443579496845
HALLMARK_PEROXISOME,0.058016154414057095,0.05170515716303321,0.18859098487531284,-0.021271292086320042,0.3648192094282018,0.030700459801267004,0.24119625924227703,0.03238855120353567,0.027642820281117746,0.2737838548327603,-0.03174580098882796,0.08714195025544214,0.11215835757123564,0.031004253759902685,0.14788795673091737,0.13774367218062247,0.0759409339111614,0.008085960929272676,0.27934639802269534,0.2970246542283547,0.02013896191539989,-0.007618586951543966,0.03437586597704212,0.15919704481747723,-0.04863283732932699,0.050549367247408696
HALLMARK_PI3K_AKT_MTOR_SIGNALING,0.005797568979902096,0.19829001287129866,0.15283686827353124,-0.009123830919857308,0.22112966208862103,0.0741035578886262,0.2852112218378645,0.16034040510363226,0.13210333082538817,0.07175931399777297,0.10763411037474134,0.5810167431170972,0.2761379350417507,0.31002241428055805,-0.051899419910371,0.09058221373398255,0.05314379727973511,0.15907534192186087,0.2536320190191292,0.27410109515836134,0.09212120767861612,0.17413315482071848,0.038133269752819506,0.2329628746644395,0.05399298999123584,0.19789716895396078
HALLMARK_PROTEIN_SECRETION,0.01782314961929002,0.08936975916012212,0.1601411856799132,0.01633027009454451,0.18388006966806955,0.07886443470066166,0.2540521740635904,0.15431416965317182,-0.019466273828889904,0.12835255974171686,-0.0217986562155419,0.5793240543257439,0.30975274356258237,0.10864495929475161,0.043348378642059926,0.0919032150788476,0.13328264778015264,0.13213042946830678,0.09261764698281096,0.18470841896075116,0.12406732237285265,0.08196350298872797,0.0458816759418261,0.20076385484234038,-0.0481129977820423,0.18197625820821875
HALLMARK_REACTIVE_OXYGEN_SPECIES_PATHWAY,0.10221086009609327,0.08747508737241293,-0.035485604810026515,0.012749425794348792,0.08334499809478547,-0.02102438697408034,-0.04816539165142799,-0.05486273768131913,0.057203365107862725,0.211451001041126,0.02590184177189997,-0.6413132099582931,0.24149544405172213,0.1734326419931783,0.127837032145409,-0.0518286425687507,0.013124416418323775,0.08760166869982994,0.29283050540018946,0.2538276348707451,-0.03428743200784731,-0.0004633546169588703,0.006783383288263437,0.14729520978687421,0.06753804141047437,-0.19198106682348226
HALLMARK_SPERMATOGENESIS,0.019908893141345765,0.24072623066955157,0.22928758446382266,0.0948595498193211,0.33748740871690364,0.07130348823461806,0.32864189902867125,0.07828173484860841,0.12110638348474093,0.23886291004681848,0.07708680711099612,0.6334377075042711,0.2644978151742165,0.3098833333507813,-0.01409330940470491,-0.04301186530322863,0.009166172529893612,0.07630183964738205,0.2895109838336952,0.35215164431800167,0.08608086163465624,0.23225958115778095,0.02267714550871971,0.1914998912895463,0.16994248439258716,0.16077355035498753
HALLMARK_TGF_BETA_SIGNALING,-0.042614484894112625,0.08300526383462287,0.030304131746620944,-0.008613771111853326,0.34443260295247596,0.019100645727779624,0.11455945846237509,-0.022342059529639264,-0.09340605848534224,0.18094333948725813,-0.047910085607396756,0.08366184866301409,0.25480528298441685,-0.2353548860046552,0.11055529709018047,0.05551711413817796,0.006920846571962931,0.14830017024680203,0.21997733383294457,0.20515784365282222,0.052925884663132666,-0.02916509480315655,0.035580110730801605,0.2563109985998611,-0.1528817699785275,0.06275356676408932
HALLMARK_TNFA_SIGNALING_VIA_NFKB,0.07435726683970144,-0.22150169298267683,-0.13607656685992103,-0.07641465870864005,-0.24404254799746777,0.01214984145374153,-0.40602558770660596,-0.10006858638976424,0.2362897020993412,-0.22518911962632715,-0.05244080641082386,-0.36963641571246053,0.07429499544946994,-0.1927498258652507,0.09059156509343624,-0.04713083344970174,0.027217864187172508,-0.0750449013108246,-0.11810174450955156,-0.1429312643383761,0.06363010645652559,-0.17386505041161818,0.038503151188781046,0.011025585600229745,-0.5119507215419078,-0.006987273012459032
HALLMARK_UNFOLDED_PROTEIN_RESPONSE,0.05197362716978123,-0.02255567698903618,0.08438132962944896,0.04097781816719796,-0.06580957469405639,0.01725930492929787,-0.18862078818145434,0.019360324451302025,-0.06143154931161426,-0.10515053077728256,0.040223857631931724,0.41640606452469775,0.27581172384563163,-0.09670989012690559,-0.06480428045821626,0.057926614578942486,0.029499772523748788,0.08322673832837682,0.08418910105920728,0.17425157867580635,0.06979636315253562,0.030746205121435728,0.09620596478795804,0.18203096576322406,-0.24085878438176703,0.20648774557024857
HALLMARK_UV_RESPONSE_DN,0.0949558578672634,0.034179309459095586,0.0026945868549215148,0.057258162272697276,0.0725231258641633,0.019805884635355726,0.26025243949657256,0.08140968700873212,0.14686615217317053,0.29540115877999873,-0.023306764217904504,0.6582039531078349,-0.03208803366360617,0.3262299935626579,0.13528906883341368,0.060324848973344176,0.06341677189715332,0.11424035560948093,0.16397796760803326,0.14933291563703968,0.05050561761190867,-0.08030898544203934,0.053956907481839914,0.19089266130460208,-0.12191281039670505,0.1899151076625812
HALLMARK_UV_RESPONSE_UP,0.035117538110030135,0.1836945344607305,0.1641695175481092,-0.023267135813659103,0.11847256859222462,0.049453774257311664,0.1973790989552337,0.13920646982634166,0.2997379092410975,0.17495237582925077,0.11420742823787094,0.5852836431193892,0.11730891184724478,0.3040177317556379,-0.036595448570061015,0.014569746611956376,0.07915374731846944,0.14556134326340528,-0.010491981023789357,0.1155768867940521,0.07238112994707241,0.13416832670493417,0.03485231055510791,0.1901730326291762,-0.01681153413686359,0.18659719430237892
HALLMARK_WNT_BETA_CATENIN_SIGNALING,-0.03712269657463112,-0.01570430568415537,0.17788448145401023,-0.02928633580501559,-0.027696754220616203,-0.013165377643871655,0.22977645402943284,-0.04618582287539647,-0.15845344052458318,-0.030756609815136473,-0.005468380424226158,0.323169812041422,-0.03394728922082832,-0.2474081684428845,-0.08957019459787625,-0.006407158527791415,0.02563225975624851,0.0788579797467597,0.12253444234532866,0.22951048960901338,0.03969338137395046,0.10488308724363554,0.05179617621066093,0.14038424695890667,-0.19848699877887183,-0.16588975787097218
HALLMARK_XENOBIOTIC_METABOLISM,0.06833710729761665,0.1235060140675054,0.1356557484246385,-0.01737614916123713,-0.1143037907196845,-0.029583022872116366,0.19884521546944234,0.046862394753162284,-0.014977654590024482,-0.10500705600893387,0.049587638519083675,-0.30004883169326474,0.1760423678783138,0.0685010562661597,-0.09535248639790601,0.06561531893407128,0.12084644325071044,0.1126693874626753,0.020995370369745355,0.10785383210540835,0.09754898358370943,-0.09152152996319297,-0.0005669452080300175,0.1859256058769724,-0.28116419268894255,0.08026845348720248
