,MGH258,UKF243,UKF248,UKF251,UKF255,UKF259,UKF260,UKF266,UKF269,UKF275,UKF296,UKF304,UKF313,UKF334,ZH1007inf,ZH1007nec,ZH1019T1,ZH1019inf,ZH8811Abulk,ZH8811Bbulk,ZH8812bulk,ZH881T1,ZH881inf,ZH916T1,ZH916bulk,ZH916inf
HALLMARK_ADIPOGENESIS,0.05771419496577818,0.21404966624549293,0.23386563038588382,0.009495533778163453,0.16838799229522586,0.05760925759255604,0.17382579643907053,0.06360064692332774,0.3418224803931177,0.13922484083923314,0.024924431696774996,0.12308097642231038,0.23317655184832772,0.07874097277047369,0.1051895792932649,0.12947968177902291,0.0031536864983022057,0.1679728167507533,0.23697534539185264,0.2714252168632452,0.2046264843235881,0.09488107239968536,0.023756472703046597,0.39925856876766275,0.20080297896992083,0.08937974021077154
HALLMARK_ALLOGRAFT_REJECTION,-0.013502101470676747,-0.17908748160622212,0.09229378357367944,0.00761986179393248,0.036178999704241856,0.004065902979377731,0.05559183807340944,0.02388197416013854,0.4856252438256116,0.13553438470825568,0.07963546454283198,-0.16501212619113406,0.18022924970193113,0.07794813955350549,0.04934871584295325,0.001695266870262941,0.020998750881016524,0.1766436760958867,0.10927119278082835,0.1571459006566823,0.11314498243479702,-0.03918159067411004,0.047826731821323916,0.12950684471633087,-0.08387554318618906,-0.003505015942550324
HALLMARK_ANDROGEN_RESPONSE,0.08576468466062959,0.05857205782625133,0.22003185569736325,0.05288629072068901,0.07863240532315734,-0.06688489089835792,0.0954644484845608,0.09077187576614006,0.47098146231123134,0.07644375753802388,0.024506336558139896,-0.038768275963622485,0.17466247512482744,0.177527419550037,0.05967533576372304,0.015158991244170937,0.06457655457686773,0.10863211875708156,0.16305548820344404,0.21313173156309245,0.08290379964050111,-0.06628457330392247,-0.03813422157283018,0.11976682218519943,0.0007049548155152532,-0.025764977798756344
HALLMARK_ANGIOGENESIS,0.014578025254482808,-0.01984775788279966,-0.12732349138925092,0.0661916570846458,0.08093238429752593,-0.11984206682742335,-0.10868577603778529,0.022490127267770624,0.48640262587156313,-0.11619456396012065,0.06293938482431907,-0.17692378324675262,-0.14934388205115143,0.0860696713512855,0.13213274194798166,-0.17729628609475587,0.019074649421775863,-0.07668783615742,-0.09293735783998969,-0.21704160559334826,0.19098998329587957,-0.1993898772958576,0.06178736751039218,-0.40360597559517936,-0.1157657401201066,0.018187279671541948
HALLMARK_APICAL_JUNCTION,0.10774402351778091,0.15822741861159106,0.25146233889384334,-0.011608903822343392,0.11325559664575087,0.08066715832963933,0.11534718292304703,0.09074911852982286,0.47327613758066156,0.011816079091766359,0.06289485224436221,0.044443100595572424,0.2360353632963952,0.1994447481699808,0.122683774546557,0.11077558170792788,0.07981060809659006,0.10949754114290382,0.21441895581109832,0.2544660652909713,0.20837201484887177,-0.0007899158394288959,0.07206496972813513,0.2677731359486487,0.07931591977305848,0.040423182818362415
HALLMARK_APICAL_SURFACE,0.09642974056305369,0.09726157840732874,0.2745567760982989,-0.020950230613021165,0.17264709565208525,0.14856808286443118,0.1328382079188808,0.024970689641231093,-0.20599827405029883,0.13668500956196117,-0.03546894699820519,0.12300798878141787,0.1878554256461368,0.11662287069950733,0.06608382096691774,0.12240902748506462,0.008095620944512633,0.09947462085862512,0.20083113963914,0.18978964178605734,0.14157872325195478,-0.026846061316485027,0.05009296357602408,0.1409470951301366,-0.06627830902484758,-0.06624935678332444
HALLMARK_APOPTOSIS,0.06342291412552446,0.0240493700907925,0.0029210975358482058,-0.006498388649893507,-0.007881140554974167,-0.03504115576989493,-0.05026311066974358,0.027572627698630302,0.10585517513947997,-0.09510557884601205,0.0012614255992351156,0.03551981835194387,0.1080712388454825,-0.13618533434421834,-0.03729608106093441,-0.055423552770848844,-0.08733557045250448,0.04409662062180242,-0.08648295539880266,-0.13399421543340925,0.07614134684381399,0.03061760578891359,-0.006139508769481145,0.06997101984865746,-0.007662205524041907,-0.0028358126679884402
HALLMARK_BILE_ACID_METABOLISM,0.10064013602263373,0.18884881378363444,0.1466955056515615,-0.012649579302354394,0.1529961706407672,0.10877045309336927,0.12151916644135252,-0.010565164766337754,0.4890617646492381,0.046126710325912874,0.06856288638152289,-0.01249465282455702,0.15342954379356794,0.17338970726260688,0.1275879172243411,0.14285962651944056,0.030728368706806557,0.07892081005839201,0.21228494509701423,0.26106120383813286,0.025368544161388368,0.03724149310242809,0.018834225193656948,0.48389902683285196,0.257376031350442,-0.04337018693202349
HALLMARK_CHOLESTEROL_HOMEOSTASIS,0.06908436559287111,0.18289528924950213,0.1316980756523647,-0.026076132807789115,0.10546034139475609,0.06429280084311613,0.08809853861666125,0.08021106150585361,0.3715734807902108,-0.12041605522499736,-0.004161236472192506,-0.1122437148437825,0.23201285118260984,0.22130312522212758,0.05583982608342854,0.08271976808157484,0.07938768724095967,0.11193926589528475,0.19592405299962953,0.2712445882047732,0.03185572870164693,0.12790307031497655,0.06367043957565191,0.3933541985088275,0.24827223084794378,0.02758670150603238
HALLMARK_COAGULATION,0.000239628537623375,0.23963926014774478,0.16730940853142415,-0.004172948521177932,0.127248877956623,0.11213843796100467,0.022249371243458216,0.02560946855175591,0.46585141303709665,0.11240529436587611,0.06276014457006372,-0.1526677811323219,0.07288592097960882,0.16370124232468825,-0.046373464262302856,0.07381627794064521,0.0791807652483118,0.1481614361108416,0.13393328352220876,0.15958262135508175,0.2497514681768605,0.05598605013880783,0.005812452934689405,0.07315313473467325,0.14188410260993561,0.005074067970081077
HALLMARK_COMPLEMENT,0.042021314728837855,0.0006714804726984427,0.11316198475816745,-0.008280007023364809,0.1632667998165842,0.04595882833605891,0.07504474263847584,0.028735965682913905,0.44486501115565596,-0.03987835692243061,0.0468033198924666,-0.05991353910664497,0.20070290085243028,0.06285621896810316,0.05500174787571418,-0.003943216471077269,0.04398896572022689,0.1329562034407386,0.10783607970931686,0.1290994102207376,0.17808631893528046,0.055707786033079916,0.10064005119813783,0.3320234887014989,0.08133326401306672,0.00055871878821003
HALLMARK_DNA_REPAIR,0.12604918654820757,0.10539046935950698,0.2511193165979615,-0.021503474355755208,0.12678325654434072,-0.06071334214779992,0.16608750450250426,0.09498993397215866,0.479801164317966,0.11041234722268559,0.06826157572955611,0.1312237061341024,0.23775091592616426,0.22032032113855804,0.1657223636213236,0.1712572882855447,0.053656619799565174,0.15296612328658077,0.2250105532857164,0.28548669135703475,0.16810307623695683,0.03792197357403859,0.06553895271662838,0.4654780033666158,0.24508674365179145,-0.011093671939236929
HALLMARK_E2F_TARGETS,0.08897721862783452,0.1594848504821314,0.2779397793060389,-0.007033627504391227,0.11301053840060028,0.06967652248503056,0.140533854555126,0.08679136345573249,0.506096772301287,0.05795389195604207,0.0013976131379549977,0.1566418868626001,0.15583032473737615,0.16863789999652185,0.1601159544376761,0.18313667344415419,0.02292768683604556,0.128976955893903,0.0849062478524048,0.13494386800281563,0.16490490930928825,-0.08221809095840305,0.04787873837871003,0.4837497011341979,0.18938860472007682,0.06973895217569008
HALLMARK_EPITHELIAL_MESENCHYMAL_TRANSITION,0.11441092700270944,0.11084188654631769,0.0007518509203172709,0.004998128028204448,0.006219614384015863,-0.18245000654681356,-0.08422238290509085,0.07080144664172315,0.47669422395538713,-0.08833579164340292,0.10995654476455836,-0.10801933881973576,-0.12393627356247484,0.1307470358860767,0.02000837739061071,-0.03178302558594691,0.07149894649230136,0.08872867562552335,-0.0475099681826709,-0.18108462644569687,0.2900024898107761,-0.16022516193741518,0.05481986151922732,-0.04892915089808247,0.0003335771772881293,0.007413992859494494
HALLMARK_ESTROGEN_RESPONSE_EARLY,0.08709070689131897,0.1418312082199064,0.06335457927439482,-0.0030628191097823087,0.0028336031743607503,0.040036381524229586,0.11055350320600175,0.07979131173677306,0.31463486870152013,0.137183673106039,0.03760562205079666,0.10503065142684258,-0.22702417487725624,-0.02509073470975534,0.059811372845878966,0.05372846799580138,0.12608907677761808,0.08728009595467713,0.1402545582299589,0.14345124324559114,0.16655043227657698,0.056141737851676594,0.03414670899858379,0.3395383656959063,0.14918256155345302,-0.03785623561706104
HALLMARK_ESTROGEN_RESPONSE_LATE,0.05125519591174641,0.16209372937967445,0.2297456648856277,-0.0005521324911279651,0.12071533068691317,0.0669537865342643,0.0827905616090144,0.038371631896874425,-0.14904305231127407,0.09710425421618453,-0.019235565344206486,0.029144311241008226,0.2556691615926306,0.12560422952168385,0.07079988223650754,0.11756251582179164,0.051081644738753616,0.02994936104239448,0.19254203351273572,0.2206424125278671,0.10285449350300448,-0.08531671500820963,0.06943730227887146,0.3490652576317127,0.192037979914527,0.06789358951612522
HALLMARK_FATTY_ACID_METABOLISM,-0.016311113704693778,-0.06796922576464642,-0.01774105620980106,0.025459320036950284,-0.07470458870998266,-0.12448443858620256,0.05842496241772836,0.01175522621438971,0.35117926450386866,-0.028542122313824525,-0.05430141735222358,0.031727622035117586,-0.16465170247335778,-0.05799385492413134,0.04141669682701007,0.040274054229433046,0.1455161846272155,0.00647509847649241,-0.02835938729690361,-0.06450202894177497,0.07731529337694526,-0.00072796474262635,0.0018303895578176046,0.20610129638348498,0.06209174075392267,0.034772169765082246
HALLMARK_G2M_CHECKPOINT,0.10930522209869684,0.07155541417644173,0.26058634701096756,0.016086946683771104,0.14742627381476428,0.033426278391777,0.12939333184759483,0.04650821441084404,0.5128420928148325,5.8790928255104855e-06,0.05012886313116382,0.02739028462314556,0.23103552684405043,0.2111569261910305,0.15740426505557334,0.07212665602206236,-0.00756987997672621,0.13676757071321788,0.08225346932112865,0.11593912697958728,0.11503286218781686,-0.04377326855569248,-0.0033841387557900634,0.354631816445706,0.06496593847416172,0.03792006078824091
HALLMARK_GLYCOLYSIS,0.09535290635235547,0.16464965480594465,0.029840755323196112,-0.024800803560666128,0.05155816822612637,-0.07199647438345923,0.009250992804501281,0.1113387326497731,0.377083855309624,0.0051643466860797765,-0.054824747534903594,0.15823381634578854,-0.0655747381759209,0.14365884385788397,0.21927619740770732,0.06154583934818684,0.10455817608713601,0.08316531358052608,0.13087745643177087,0.17143549381485595,0.1426299205864708,-0.07333734319788737,0.06297039449995476,0.381644024072491,0.10024228816678643,0.048899647167085725
HALLMARK_HEDGEHOG_SIGNALING,0.07210941794879534,0.19502590941703196,0.1999687781561343,-0.028711228420973695,0.10319525040017552,0.09414588673848082,0.08584236863498756,0.01268453262746688,-0.2849616876874905,0.131071223419738,-0.06764376765103282,0.21859144561848273,-0.006978625885806126,-0.016423428461272607,-0.08454012769328963,0.014398474535283198,0.07878425300007866,0.13637816046212745,0.10737096071255936,0.16238091895492768,0.1356759739671323,0.047779384922555644,0.027920408241911172,0.23141533675800133,-0.04599908875012799,-0.013289796884306374
HALLMARK_HEME_METABOLISM,0.11517899020551145,0.14921529426154778,0.24322535657015948,0.009480183115094252,0.12044367139715768,0.0469107821311578,0.20249140372805252,0.08468927149384903,0.4500577388609526,0.1261952418838782,0.031515429467419254,0.09530896715538828,0.10793178744226951,0.1857536920550747,0.06114248436401149,0.08574618264577727,0.13405720356951015,0.1179726892806028,0.21046063662282763,0.27325045688092137,0.20196326223698924,0.11173812099782095,0.034763841000487794,0.39178217193783754,0.15028496024475962,0.021751834844389858
HALLMARK_HYPOXIA,0.0943829664352262,0.037582078880204886,-0.2772636444240189,0.050075167275663725,-0.10203663078325331,-0.15448649935279307,-0.12983460511266182,0.04871581929366942,-0.1653596978231421,-0.13010605387890894,-0.008325888982813666,0.07044456010544799,-0.2311924949124629,0.04876682120725121,0.116892575124648,-0.17992919289829193,0.064365856940535,0.030239170900392565,-0.08610946799835664,-0.19408846836390872,0.17504032592159668,-0.07042496911961212,0.046326705053956675,0.03401919147834364,0.045766373198193364,-0.026246262448861347
HALLMARK_IL2_STAT5_SIGNALING,0.062083955110313414,0.10367908963241737,0.1457348263374217,0.01902775050840717,0.17922598793566805,-0.06232486108192949,0.06351693388684923,0.02331653932874677,0.4964057327562692,0.05150542019160119,-0.03937587819477918,-0.04657656241329915,-0.03265478398073683,0.11966675920207367,0.008133518270786516,-0.06687471332010031,0.06444234507274861,0.010685703723320488,0.16322041035203697,0.16880338643494064,0.01738034837483322,-0.012911803527394806,0.04191001619030312,0.2785261513947516,0.09598678369276066,0.034018308111856035
HALLMARK_IL6_JAK_STAT3_SIGNALING,-0.014144119613835689,0.07690783819632788,-0.02998857965104013,0.013575035852737513,0.15558082083177263,0.005014868116173574,-0.03504856930352111,0.02567078191985442,0.44432253878760086,-0.05390468758917836,0.05147695461768802,-0.14788026104273277,0.08809784157076195,0.07585384793212746,-0.0010976483962028014,-0.08328851477700545,0.012667737361309833,0.08747423376658466,0.06283830731707711,0.08642213783511865,0.15151702661848782,-0.2020668066849443,0.008754801133104033,0.17808945705481857,0.017459680345004235,-0.0004990690955185678
HALLMARK_INFLAMMATORY_RESPONSE,0.06785521659966912,0.08479458137480114,0.038391621586351156,0.018107171392408156,0.07736009124348592,-0.07964121879527074,-0.008381024872789505,0.025203500752190713,0.26300397684655047,-0.1378680603374084,-0.05964419866778878,0.12470471312443047,0.03935720876155616,0.09898154926507734,0.02884277283661357,-0.027632363078514098,0.020264450879501156,0.09875930177721916,-0.037708550827443815,-0.031601093236969705,0.16277766588992446,0.03686297024973122,0.02069674837721403,0.04033604087324418,0.007770440768368667,0.05494269125622144
HALLMARK_INTERFERON_ALPHA_RESPONSE,0.053189110723502825,0.006152631150372876,0.28361652340620414,0.10073237446615987,0.16119537801584485,0.05859590627420229,0.12550062875324577,0.06724346421652562,0.4912974917823559,0.15383684762025843,0.10133098431976856,-0.14546592275514553,0.25982928048718423,0.18818150679233397,0.023357395964133918,0.181607928689862,0.04977957709352788,0.10891516884170484,0.19954499846781343,0.2626706119284145,-0.07832585524294607,0.03269518369873206,0.0708623401869483,0.3954056559417165,0.04279018142417243,0.08267970998783629
HALLMARK_INTERFERON_GAMMA_RESPONSE,0.045118399842404185,0.0760663819001282,0.09307661663797072,0.028971586412020904,-0.03035503317606738,-0.08599988386963021,-0.1366071375371084,0.04823916677316071,0.48577104330808557,0.09242991865271412,0.04868660618869321,-0.11359325332479786,0.1984645554041365,0.09451566646469207,0.06040694184545062,-0.05495723067553775,-0.020158468143299135,0.11132675227193334,0.017961527391357122,-0.0056752990051190935,0.22691227524557744,-0.05461470086795542,0.06479970253768275,0.10351900281215631,0.006117379125007671,-0.07218715230357789
HALLMARK_KRAS_SIGNALING_DN,0.09202097743970285,0.16895185204003021,0.1540459103046029,0.03231037151468101,0.056795173267244044,0.21255899421528593,0.2025934653704617,0.07970104437157914,-0.06138215043947938,0.1071121826715161,0.04629067160085171,0.15915018105599046,0.15993086727978292,0.11786071646075333,0.1040952869024251,0.11601800795558495,0.07792576775876615,0.08253671978633227,0.2036823344156884,0.2934637854973964,0.08148784226812732,0.08195532052413762,-0.014185851848498627,0.4806434974997952,0.20580144708723175,0.062355358566989455
HALLMARK_KRAS_SIGNALING_UP,0.0674407461199237,-0.023336638152006588,0.06862840305469216,0.002094242608260225,0.17018650682601064,-0.030121189097876745,0.16688944881483714,0.019875595498985564,-0.05109462222242658,0.1549942472853529,-0.05308907341739852,0.20223188480853588,0.18937608733099912,0.05143109645900914,0.08509624896468947,-0.10306255883119948,0.03013354460539877,0.08826255291583528,0.15752699499071868,0.22262969884068806,0.1941287156536207,-0.02730808698994768,-0.05674006924064099,0.1991710279418317,-0.07866635656168852,0.05541876208133563
HALLMARK_MITOTIC_SPINDLE,0.09728105512712815,0.13155091730162322,0.23498483998410044,0.02588016386945944,0.12975884173263016,0.08782248818621981,0.20941188805314304,0.08855398552703943,0.44652210407226767,0.06964776832466188,0.04784019813010762,0.14424316539883342,0.2145247558869957,0.19782127251436887,0.11098307882924514,0.13623209697377703,0.0913420578281951,0.0977484722784225,0.16753242637792107,0.24584842837192292,0.12587433150348318,0.025078815137408735,0.07720874166972616,0.4033967015703296,0.1297468373881755,0.06402208144318279
HALLMARK_MTORC1_SIGNALING,0.100465440366669,-0.011772392044962597,-0.08870153382023288,0.007165176325790747,-0.08380690215605284,-0.137428317424273,-0.102435474244695,0.08812248520534514,0.41052505924415367,-0.08782321748516107,-0.0022551758642041586,0.13641124248239242,-0.08529782368810643,0.1123840261124968,0.09069723667141202,-0.118341915012807,0.08647415246951055,0.05300633100597358,-0.054458375498316045,-0.13393015726276275,0.024325934486921417,-0.13641428313126552,-0.006102404311022101,0.14167694524193927,-0.017447792866315488,0.027797264921233238
HALLMARK_MYC_TARGETS_V1,0.12934791032036685,0.018913403261967252,0.23616833459881262,0.012951731720467884,0.05576284577985858,-0.10568286670013176,0.15679199425779378,0.10584727069584043,0.49095123814298497,0.1085332542608664,0.049469756796183845,0.1555513103956926,0.18762829488059113,0.24923437646589122,0.20804379256569044,0.14110230476661312,-0.021940237588205656,0.14757340095689656,0.22138360866216045,0.28732100029131774,0.1651216797000867,-0.004782764089240801,0.16671956637417193,0.42731096503097166,0.1368968500637793,0.009104686075158281
HALLMARK_MYC_TARGETS_V2,0.062298057167788495,0.030426518944545827,0.1886085073074622,-0.01225015495045309,0.0927211553859544,0.01697848160435223,0.03275746285770098,0.09261374402798467,0.2673944882130189,0.030131775743290103,0.06286217519123659,-0.009401171979861749,0.13348051437998337,0.1701719536002301,0.09312379835592358,0.017714958860572328,0.02472682981480825,0.08928993906037243,0.09311568586045782,0.17758299870011865,0.11060092406429738,-0.03838704416025294,-0.0518439653995714,0.1982320030640552,0.06851931165422034,-0.026247013593139683
HALLMARK_MYOGENESIS,0.09923601061307813,0.1505164930577136,0.20772373193293658,0.07468065601147732,0.1114789304349794,0.15292691726081853,0.17960190143384347,6.405591509112145e-05,-0.14240802634549976,0.1947306327522957,0.0382874346627758,0.1031169368000955,-0.0026181274791698948,0.0210656543271853,-0.026807542371754933,0.07169313481708868,0.15519756895323802,0.11606260425034022,0.2031685833110317,0.26890680245489895,0.11583522125656662,0.1322746715310498,-0.01749901584840781,0.1950518342168971,0.07541978768601451,0.04461841198278928
HALLMARK_NOTCH_SIGNALING,0.1390859117736093,0.24786883389193284,0.31411012678775,0.050805419490950576,0.11803608533012214,0.11597016390603541,0.19523532775810964,0.08805363439498355,0.5071306034474343,0.14879757794225706,0.03444963256286681,0.093995985151802,0.243260622571885,0.21474834640264273,0.1606920820703934,0.13647425194164098,0.11063368137146987,0.18391583823576718,0.23289009791402443,0.30727428444227123,0.17086562750675716,-0.011964735047112419,0.02968010382310193,0.46171769705452903,0.2502805466135688,-0.0013380088845058229
HALLMARK_OXIDATIVE_PHOSPHORYLATION,0.11121667517073137,0.049369273835206395,0.2798375574533292,0.00933781476963938,0.10630684116388465,-0.07065070809517246,0.18688754393823087,0.09207862749005921,-0.06171273738991333,0.1196516411184796,0.030202628811151495,0.2198212881419336,0.22747711243572186,0.11519786454198827,0.14953163838109065,0.15125074822709084,0.04410217930171467,0.16915009367133496,0.24144796667608895,0.31324324079373084,0.12823450687407983,0.09079641461455744,0.14829408297976743,0.5096129118182935,0.27449654032172194,0.04191802620968924
HALLMARK_P53_PATHWAY,0.04944901889945353,-0.03542706042497931,0.07423887742986711,0.015187265310808856,0.09290616845047023,-0.0986424007218699,0.11954182565180123,0.051997128640593936,0.47936689968908397,0.0431382768094818,0.05183126536082512,0.006653047976473492,0.09391329710470302,0.13142762881886869,0.1755436839857625,0.0795504721106818,0.07232482326850528,0.07280575178315471,0.2167826974431779,0.24202864891731596,0.18919341334933906,0.06190545729131898,0.04799644728154016,0.4230269725204838,0.1445471613145619,0.09123910950187952
HALLMARK_PANCREAS_BETA_CELLS,0.1038318401130892,0.038965871473339256,0.27981587753173043,-0.014696968605922327,0.07218455962700866,0.03723429474103339,0.18415056420882903,0.03327383170336925,-0.2173633389531268,0.18095689686845476,-0.05104654706484592,0.23078579690047532,0.23063846250079373,0.09562444830907513,0.10811393506121185,0.1843871608748164,0.02094504200129275,0.18310752770805722,0.18048847005683846,0.31359730463396734,0.1592616327334501,0.11527851880177986,0.04846582700043237,0.4637090516240291,0.11954476249870681,0.0069394464154157506
HALLMARK_PEROXISOME,-0.021149981754430315,0.06559954786104767,0.1904728892113071,0.014170382193647144,0.06751468358761717,0.10672040511072908,0.1945299047717689,0.13122554521962865,0.2062339999770083,0.10855679249128981,0.0018967681572228349,0.049221431933025736,-0.03608065797799797,0.11419116751448484,-0.03626793624590119,0.10595115898601172,0.09907243749218926,0.05060923721167574,0.20200811407407976,0.2678150590996607,0.010217486998764883,-0.03351982020889452,0.07238704433097566,0.24434201224254073,0.03962687095140905,-0.0012978005731360224
HALLMARK_PI3K_AKT_MTOR_SIGNALING,0.12323285364605661,-0.004623339868821809,0.2526476236942923,0.052835849146436444,0.06737960706412348,0.021788908767116314,0.14938544652412356,0.04969169157851181,0.20308119687032342,0.011517092809267136,0.004067125761840598,0.17004199926629993,0.21476061750304504,0.047405519406704504,0.1392205388273491,0.10334797328851637,-0.04822864437331745,0.13632760956052595,0.20592004153577917,0.26087780628446305,0.1663748865067824,0.05029716045303252,-0.013667086178591283,0.3403648515863482,0.09757494510793946,-0.033660432048186036
HALLMARK_PROTEIN_SECRETION,0.11234708464217796,0.13722273452142283,0.19047346211685193,0.06967955887995053,0.16872290858132297,-0.025213025194967917,0.20925949341402916,0.0730592991717285,0.38732528761768054,0.07609592698561846,0.021686056733698496,0.19186446189595122,0.19365162800881144,0.1385042390699273,0.09051072366314818,0.11883015978862602,0.07670096845256716,0.15679326564885251,0.1856184588053923,0.2650180046772504,0.20348573741611806,0.03575805638085625,0.04700557729405332,0.39127803691357077,0.09052761122784055,-0.0017799468299132344
HALLMARK_REACTIVE_OXYGEN_SPECIES_PATHWAY,-0.01411987427332607,-0.08004843601220661,0.005046078840766129,-0.001382092709876559,0.09271798690289337,-0.1434811073568281,-0.005925411110426296,0.06835057032682541,-0.2608586270346946,0.08783164171256468,0.07736981089185038,-0.1354975938467952,0.1770334419204715,0.02761513116323487,-0.08476849969024829,-0.09630530623746003,0.05809718777476653,-0.03361991798490929,0.20270882618803177,0.2788485376148622,-0.22664766792014915,0.14338428531620723,0.059631845975634555,0.26470382675776033,0.08390722551380572,-0.0288083493048323
HALLMARK_SPERMATOGENESIS,0.012564190044514516,0.1190776713017109,0.26573218720836617,0.04127480044964241,0.10340065754111155,0.06623537480450138,0.18275926450967292,0.0953329004759753,0.12704901513590008,0.15682842139532374,0.002559315664492785,0.17222132317942473,0.1849133694192301,0.055192837105339676,-0.0014464877098661502,0.15580970779356082,0.04331018579282287,0.1331521888783302,0.20999552554261192,0.2796860649975769,0.007298408989440331,0.043140668554812384,-0.002619639242444602,0.4868679126716494,0.13175103413413036,0.028295516595037144
HALLMARK_TGF_BETA_SIGNALING,0.09370347995498904,0.11924625079787825,0.20328250849568344,0.04384434669116753,0.1594562621426195,0.05734598148929741,0.17020974936633235,0.07788707495078542,0.4789175689683093,0.16797161974559258,0.03128357739681687,0.02919278803342075,0.2613148115973079,0.1895850745069254,0.0739717457155251,0.12780868899270265,-0.00889840499227502,0.15326871226990402,0.20660069075786078,0.24844666230605164,0.17975002536371057,-0.02902687452592759,0.06691944031639845,0.19878294954262718,0.09723539323826327,0.030166926287077286
HALLMARK_TNFA_SIGNALING_VIA_NFKB,0.03892538264094634,0.12587129031032676,-0.06599554386609131,-0.03102065600708977,0.008549843011765855,-0.13768605505051232,-0.10596544896732106,0.02681804299706095,-0.3206253537675891,-0.06083852888765061,-0.007095358532604396,-0.11545019509299939,0.1280021034996033,0.04064459760976415,0.05895801817584998,-0.12309962754838884,-0.01311809084577969,-0.04237249106113213,-0.004145143241392942,-0.012391929264722957,0.11894289949900365,-0.16914973959223553,-0.06302268183659492,0.008510227652896694,0.03922448742281315,0.006653680202466097
HALLMARK_UNFOLDED_PROTEIN_RESPONSE,0.11362040387740491,-0.011215410413643639,0.17130059160865563,0.020590886155450846,0.005772223882475336,-0.12670145944736655,-0.024708321710427913,0.1067927152000176,0.4429483095657185,-0.039697442747256416,0.042557287694494406,0.12978976236109593,0.1916373558673812,0.1989369424195643,0.14333456916615778,0.12357280592442214,0.043164976765865386,0.11561152306477417,0.20307872106181132,0.2645016980193755,0.16867478933034244,-0.034712537326299815,0.02617788179214303,0.29858902843728463,0.02364138593445704,0.07093587849074122
HALLMARK_UV_RESPONSE_DN,0.11681484560880458,0.18385971551625277,0.14320842873378214,-0.021439186967733524,0.13682806023651983,0.06964501129660257,0.15686106810198797,0.013614840526393014,-0.048605608309399244,0.1789079702843495,0.005623070237031794,0.15881446353388692,-0.1465277934843484,0.021509868661966348,0.05750631584495524,0.11787248146446608,0.0415290154352907,0.05615360881828743,0.16997429398601033,0.17869796749804634,0.16893535767031723,0.01530717693511785,0.026893224137569234,0.1488480705916161,0.10030243672528319,-0.033696243956279695
HALLMARK_UV_RESPONSE_UP,0.09446136945528445,0.0854615634651249,0.13248206259683784,-0.0032273810701436735,0.10222672763377462,-0.024036324377200918,0.05651937092431631,0.03986145158441141,-0.26805765792293273,0.11295411006289727,-0.02282578518750768,0.17738123976646802,0.16451561234188836,0.06572747895046126,0.19367247608020247,0.04490706321113975,0.03760608681605749,0.15029046992648368,0.16195474610771665,0.25296135094893224,0.08511866544599975,0.04441160936045619,0.06547570458984928,0.38220499045215206,0.13217225070244235,0.01355048813384684
HALLMARK_WNT_BETA_CATENIN_SIGNALING,0.06233606340179302,0.11170062325591477,0.23318807678454925,0.005781206702067458,0.07690017760730865,0.11301765280068775,0.10946824722026949,0.03134020941191395,0.46883759493358923,-0.04358529723164332,-0.015167361570830807,0.09946410510135859,-0.08169054188504574,0.24365898627508864,0.1441870130527626,0.21710444575677504,0.01769412222890695,-0.028341463933850272,0.15521455809104817,0.1870871975615777,0.1208203976467263,-0.08558903226694597,0.0020221513890913627,0.17688393662064716,-0.06312344495825527,-0.03152364750110521
HALLMARK_XENOBIOTIC_METABOLISM,0.0882726826875273,0.035885053490122734,0.13426917833214116,-0.003668809179544043,0.0837239964047988,-0.027809575968802548,0.12778591499181643,0.04593141545224646,0.2181479817331571,-0.020844876977136995,0.0386562752333686,-0.07330668602508338,0.15254090810486745,0.10962232521419148,0.07763396881531563,0.09736677091726398,0.056609201025656516,0.07501371246591379,0.18978809107717304,0.22530770081547305,0.13257460543547625,0.11473583302846822,-0.004584459667554825,0.4243273255303804,0.18115532157922615,0.001463936013521132
