,MGH258,UKF243,UKF248,UKF251,UKF255,UKF259,UKF260,UKF266,UKF269,UKF275,UKF296,UKF304,UKF313,UKF334,ZH1007inf,ZH1007nec,ZH1019T1,ZH1019inf,ZH8811Abulk,ZH8811Bbulk,ZH8812bulk,ZH881T1,ZH881inf,ZH916T1,ZH916bulk,ZH916inf
HALLMARK_ADIPOGENESIS,-0.020497412707516007,0.3065190465047268,0.18430406805020963,0.03614685539327614,0.22795692340717094,0.08421350647881466,0.20467169822689707,0.04669537994670027,0.11621998065240842,0.048981702847849244,0.04812023670535907,0.012340933682061577,0.2663522004279425,0.03533270028335658,-0.08984109161625428,0.12617396440720496,0.050702013540581514,-0.08206631641048616,0.11048806546616184,0.08019490503995505,-0.06373684166492334,0.07308286970053975,0.046020132688031005,0.10536156134922449,0.1521226697185366,-0.07846117463267528
HALLMARK_ALLOGRAFT_REJECTION,-0.03962184476104667,-0.03830321212102499,0.10813941274908848,-0.010483421808516035,0.09240096005294356,0.04030656045314522,0.0637221978336752,0.09988939020414608,0.24747098130565012,-0.07633639276614144,0.05798176701717209,0.040765702751490135,0.2567949134414495,0.03864570368045452,-0.09868995060777375,0.055818371186007465,0.07281505518144854,-0.0337708859421621,0.11118827399134164,0.032129460688814955,-0.04558988314511665,0.010354612816886261,0.038113112211495104,0.07328050337053041,0.037363526745952794,-0.006593939159000414
HALLMARK_ANDROGEN_RESPONSE,0.03537699241994208,0.156432951846509,0.1446331614271889,0.00063382846199992,0.11114097731050088,-0.03447396135376751,0.1542297359416931,0.06288794730122464,0.27685580180781255,-0.02860554862343008,0.08897959837745653,0.13476586863896245,0.26976785204014514,0.16994721756759051,-0.06206802169519357,0.09304304200263201,0.02948271538822386,0.002748560245716336,0.0951587210126499,0.05338109012421714,0.01262814200771621,-0.06090208644368554,-0.005007906660165582,0.001292156199472851,0.0965416094174229,0.014301767407727917
HALLMARK_ANGIOGENESIS,-0.0018526915134111361,-0.08941872979327067,-0.011109548620430716,0.004840324386110152,0.11607271847490164,-0.11430468618195358,-0.20437030824397373,0.04312962785555249,0.2661927993553714,0.1017535445044665,0.10389851809876792,0.10500205934262277,-0.06431360618494968,0.1590571359195423,-0.11204326407907454,0.0003607248364197922,0.11265842662873683,-0.08806688442865201,-0.07300645789662052,-0.04479868987075794,-0.19688558472409295,-0.1263811899102637,-0.020454194195621615,-0.08881423072616178,-0.034544717060511355,0.232396416429628
HALLMARK_APICAL_JUNCTION,0.01623937603644255,0.32642649003272783,0.22703799824369475,0.055668102201663336,0.28518403691579286,0.09897606938244562,0.2078224271372002,0.07634941696237425,0.2326345283571315,0.0964615140406524,0.0028172146853143584,0.01975419122654778,0.3375831060206145,0.2551902490080219,-0.0036307387574541316,0.07758464607442225,0.06849356827724705,-0.07868982187491788,0.07923334737163432,0.09704387070254038,-0.0760645070409875,-0.009563110039493065,0.031511454836369024,0.07598297852004735,0.14273192557590106,-0.07774270000713078
HALLMARK_APICAL_SURFACE,0.035873800598192215,0.2529431421853564,0.224626593412707,0.012161206335544857,0.17584112503324456,0.09509401334394635,0.18739939792497917,-0.03865310094549528,-0.17695550029350796,-0.06836700061549986,-0.016535430351053565,0.028927017567365494,0.3425518439608969,0.24535803852054022,-0.14617686325978485,0.15827877389938713,0.03872298349915051,-0.0218195030139735,0.065011484151866,0.08755570963829817,-0.10051307514749934,-0.040076490019159715,0.007956773127850321,0.07186746618649568,0.1578757885086745,-0.018351596815928087
HALLMARK_APOPTOSIS,-0.016661298070025764,0.1167326882925539,0.04367679507463831,0.04266921602502258,-0.0032578766876349722,-0.004246640285420597,-0.07775114161706345,0.035529470101956055,0.0661937219257344,-0.0036380567691930866,0.007442004465400255,0.001938048791159455,-0.013536448629062,-0.15581157047919933,0.14525170587604666,0.03535999853908922,-0.0008869264826378963,-0.06588572801773679,-0.01521788808191796,-0.055585195498137736,0.040874441464491186,-0.03158955306495522,-0.011736085219186216,0.03357584966342984,0.07865101231197665,-0.018743242918339384
HALLMARK_BILE_ACID_METABOLISM,-0.023303582958704543,0.26853798984063665,0.11674279209504299,-0.039571899674742214,0.21736196241842703,0.1550746591927397,0.15222220337149736,-0.00655632046402331,0.27042423317782355,0.07101397541971413,0.04150888105462279,0.19213776280976622,0.11944053345897684,0.17502807237527773,-0.058695327552180744,0.11775357654050925,0.05648182279286188,0.008808708687951377,0.04176997258535967,0.07150337867721358,-0.009778470866414653,0.09943995656207444,-0.004327384275161813,0.09795012774690658,0.08512913484228586,0.16260221034910266
HALLMARK_CHOLESTEROL_HOMEOSTASIS,0.056587361645677625,0.30950625351971456,0.09197637164104437,0.036540585794919644,0.19515261862096886,0.0650058946058772,0.13469955860138055,0.12472284001763013,0.20814615282588533,0.10118127406282082,0.05310557784376458,0.21406057307580534,0.2876398639222321,0.30568142847153995,-0.133720879153403,0.028195248566976843,0.0643713650307543,-0.03075850348953065,0.056606900856977664,0.08081439155303272,-0.03858529660521484,0.052178560151998385,0.061855510652134,0.034804412553338035,0.1289681499236843,0.0391994917436795
HALLMARK_COAGULATION,0.03789632734165373,0.25959784041661876,0.20747949273082253,0.022427826186112956,0.1874587254750308,0.16472609612992326,0.11646630284144535,0.0939610333883276,0.28480224997225884,0.05372938136765892,0.1150653515754943,0.1208393583390073,0.23900152327632176,0.1893234018277326,0.08489244844995994,0.1937824072431069,0.013990758074841559,-0.10430309594950715,0.05369609883858976,0.05739288268855851,-0.035336145204287496,0.08713852176221015,0.09775751455461472,0.09827966971311879,0.15018197988103502,0.11061464678164137
HALLMARK_COMPLEMENT,0.012331410740997868,0.15878572343685365,0.0850696761165262,-0.018205303818281143,0.20318070987706105,0.06285905883115299,0.12260172096224606,0.056698080675651824,0.20870397805290808,0.056985667150749236,0.04119020929177542,0.09012027251203504,0.21194957565696468,-0.00857375099123734,-0.1165759056206368,-0.008504372464609741,0.09982353320789694,-0.09507907731390168,0.08071889012804356,0.029580081610558598,-0.06713621987335762,0.01701339903069324,-0.04327135724796346,0.0414144722319347,0.1078800895070748,-0.07516919879132655
HALLMARK_DNA_REPAIR,0.021765700089900718,0.22274898835867224,0.1318014627315002,0.04226104206719042,0.21924159810879326,-0.025108702574409926,0.18723916132393253,0.04970932800265559,0.1781032302746341,0.033127631054487454,0.05033757917408058,-0.004554785557241033,0.33169918915209673,0.2095435542370651,-0.22243546034156064,0.09492511486512767,0.08555961775196559,-0.10556396732382652,0.07295538140695391,0.08809284407664686,-0.12485917806314989,-0.024728251860431535,0.0495250654005466,0.05123534401417764,0.10412481975791946,-0.07894237422753003
HALLMARK_E2F_TARGETS,0.006293929951955186,0.2512455307111507,0.18854021369851798,0.03457299203556285,0.23550096577309174,0.14201449513483025,0.1970498036412534,0.06770499599572888,0.2285909726243509,0.04116311838291173,0.02637850963751135,-0.05256179667299234,0.29267178982106595,0.25862302547009663,-0.16567252171290325,0.11414445737001463,0.07825591388903705,-0.04282589219976573,0.03571977027563042,0.012351213653748215,-0.05669431324319222,-0.0736800038130622,0.01882142586333271,0.0973430570431639,0.12243092923505595,-0.06763888761261272
HALLMARK_EPITHELIAL_MESENCHYMAL_TRANSITION,-0.00462051715662503,0.09377607589458689,0.08951453468339753,0.059419942156748916,-0.04490720074451497,-0.11461965852430744,-0.03278254600279377,0.09943749634698984,0.2548170116996166,0.08526132155695881,0.05389352837543289,0.07026011491197197,-0.007235844472510788,0.19782170760621007,0.0006504632465905407,0.08091166295564999,0.022678579210918776,-0.14510914603504557,-0.0364716380572778,-0.02889598359301459,-0.07459971842256216,-0.10357761189124484,0.07919815231965927,0.03345882261868402,0.025369905925705226,-0.05288201805250671
HALLMARK_ESTROGEN_RESPONSE_EARLY,-0.04281079318429953,0.16523435236337594,0.031580765829690306,-0.004690103756456097,0.09188318775694722,0.05586240942220128,0.16429843555943105,-0.00976275221450141,0.1332476596032958,-0.006327341679553873,0.07023644708790164,-0.031038395451343005,-0.15829237512644267,-0.07468167403827915,0.06406132313288627,-0.017413291142871504,0.03395037692383404,-0.08594895114249529,0.015012835453287833,0.05273304558367956,0.0029305906664044644,0.040109599103805404,-0.0005576522835655346,0.09538003012648391,0.1550409311124372,-0.010636319684258742
HALLMARK_ESTROGEN_RESPONSE_LATE,0.06157702550954818,0.33583384382744214,0.17314901025871823,0.0485736644448662,0.24000573387151364,0.056410068761705935,0.027731089272112076,0.028411158884914706,-0.14096001004532482,0.00646656359035068,-0.011202978490503005,0.009325771751749416,0.28375067417947764,0.16149242044383802,-0.07319711437226059,0.03962045039698376,0.044168123268754224,-0.0028481853108723284,0.10406776226380265,0.0532721162162488,-0.08152120164662947,-0.1371822708203143,0.06707694709094039,0.04313665025122881,0.11227048134613224,-0.15870852639275876
HALLMARK_FATTY_ACID_METABOLISM,0.09170189485140551,-0.013685225770364502,-0.04216812940804334,0.003702653811852148,-0.11624192145773911,-0.06204997771500904,0.06493275849930165,0.008283493470884641,0.2239082694606056,0.010366278930845312,0.03887793837595298,0.10428243947270806,-0.15575465339707464,-0.09154674847077389,0.09586738909641584,-0.0878927331318442,0.05259267455396872,-0.04123452440254256,-0.05446184508723107,-0.03663330856494536,0.04878620578162926,-0.049686680414538234,-0.053396623207819766,-0.004765518778737231,-0.002716568059377627,6.451892123561192e-05
HALLMARK_G2M_CHECKPOINT,0.052851625428486156,0.18109053169974615,0.14789751424559464,0.06762806162830871,0.19071870058482082,0.07928440865802905,0.11193206918732296,0.06818081649317537,0.2481327574148808,0.0442163296054602,0.00478100941265871,0.038510219495792766,0.29629791648324716,0.3054740777617676,-0.1518546657598757,0.11313733766207097,0.05753140312395357,-0.07883771258033016,-0.003528377586974665,0.05421774186310162,-0.03805515507548309,-0.01919727728574537,-0.009164403245083141,0.030899878072403877,0.025666385487802885,-0.010807029107715908
HALLMARK_GLYCOLYSIS,0.0035179401853000615,0.13672072634039525,0.00284777279077456,0.031051828098359997,0.1632702887995118,-0.05728937359174607,-0.03557035913035317,-0.036878161975247715,0.1488008289024067,0.15328231876461157,0.016203001084154265,-0.06603065635708369,0.013111506950981613,0.10130950826841707,-0.13808429761710753,0.005635216299154708,0.020489697385262993,-0.1257913950183985,0.00903664719237278,0.06073443127622404,-0.09734453219832251,-0.10799139468986794,0.04612838249281105,0.009759048277685044,0.10581684862849401,-0.12095501391392323
HALLMARK_HEDGEHOG_SIGNALING,0.07441007236733833,0.1642300890737823,0.08600522924592746,0.08453222331306184,0.2206968444351219,0.04488457368841387,0.14794371568676054,-0.08470069220642786,-0.26159750707070645,0.011056963036268878,-0.024636095446877147,-0.038450750967884945,0.07566341787814393,-0.08068993114116878,0.08490797705805408,0.017265845178945072,0.062454014754587076,-0.19942392449998617,0.07065146660537568,0.08020954725290838,0.0123506555102368,-0.0014632963655368475,0.011748949164225468,0.04712497246878065,0.1396561361595807,-0.14004474408183903
HALLMARK_HEME_METABOLISM,0.05481816194603895,0.25148642898242435,0.1641737998955342,0.08154779048187538,0.2507774106348584,0.0769711962261834,0.200241017793798,0.039363845328349883,0.1740453644016997,0.06359580902880253,0.06650064454084968,0.04047041137806442,0.1986040137631455,0.15474023422591773,-0.019503436987526768,0.09680129016725306,0.10567685832388524,-0.05309886910369826,0.07503983431540266,0.08317885012833771,-0.04666958596993933,0.009465382411267173,0.09402822122847489,0.09550126584912946,0.15092098419809175,-0.014053881232470061
HALLMARK_HYPOXIA,-0.0117593626226308,-0.226942257570514,-0.22520640246841275,-0.034150536008835955,-0.19445069876965843,-0.10269007003628038,-0.16048647057241658,0.029735633060601792,-0.136108658032954,0.026389283109227595,0.023345269401849354,-0.024845439507564196,-0.26637552693132993,0.07826643176882771,-0.07056876664246754,-0.2662937674197372,-0.014586369111495467,-0.17373667071793933,-0.09185784279232867,-0.010364591677085245,-0.05109848933701559,-0.08854876915428574,0.02463143701875308,-0.12733914251782394,-0.11447148379459512,-0.11342800554179683
HALLMARK_IL2_STAT5_SIGNALING,0.08804172330601576,0.19555804331409707,0.12954704807560932,0.08440252678230399,0.2783639391821447,-0.0026170946293587244,0.10310223497603227,0.03476239777168978,0.23511484305180064,0.10301878923852505,0.08985997821900778,0.2137597066570742,-0.01784461369936623,0.09752414153583006,-0.08884582233709597,0.06087903435729943,0.05298736284725068,-0.07101811061265227,0.06047207679016297,0.051243588640666575,-0.02724857701483315,-0.06103284679535804,0.04751169567243558,0.009383763360112497,0.1023250844955309,0.009181530007161624
HALLMARK_IL6_JAK_STAT3_SIGNALING,-0.024516896229127005,0.08621840653748256,0.030251805150408317,-0.00047070133094370643,0.18463313004345122,0.013390015221906316,-0.0759942485550474,0.07675330941671275,0.273333276214446,0.057114242400469174,0.07154519124412728,0.08393881887142825,0.1735660691102599,0.11598337812259778,0.07683035548401497,0.010383329634834314,0.05220134395638497,-0.05895679619387494,-0.003314061542464922,0.02846130185034884,-0.1061726042258417,-0.14853711946946996,-0.00273834377590663,-0.03980289362089313,0.02154995611590542,0.09606811153998149
HALLMARK_INFLAMMATORY_RESPONSE,0.011409514255508424,0.1988222103125713,0.05106629744484665,0.05151292588637585,0.10018045592395976,-0.018960280329422874,-0.040437844871139966,-0.07261349201663614,0.18207495160269196,0.08476067322035091,-0.000669086579689874,0.046405641981117615,0.02483216821299856,0.12671790023900523,0.039519690220840044,0.025646925249399457,0.06317211983193606,0.023716769232067638,-0.05702611717568711,-0.015145337282445994,-0.05733534684325476,8.987147493645471e-05,-0.011071487088860745,0.01995474222497297,-0.017694176983921183,0.0007833449091830361
HALLMARK_INTERFERON_ALPHA_RESPONSE,-0.028435209342836287,0.2394796015386279,0.23386421241224517,-0.05465139672741377,0.2746630398024082,0.13590758671014574,0.20164532396335447,0.07564963708317822,0.26752677190105867,-0.10327162869518387,0.07164804031129617,0.15745425589983122,0.3096869424039817,0.22688030681931834,-0.06394049204055131,0.11611727476990534,0.02972288340907884,0.10162137705100271,0.11832939443173446,0.05050299081606536,0.04403138123812962,0.006798009648892007,0.02533098654629526,0.1075074411777493,0.09053230329088506,0.03167312460793842
HALLMARK_INTERFERON_GAMMA_RESPONSE,-0.0731051802904638,0.13962187834434392,0.07542473784247737,-0.027389338594909003,-0.1133068793108071,-0.007598048768080322,-0.08877662517068885,0.09470335489620564,0.24581411232632094,-0.06771214732362393,0.010281846936208667,0.026745873485410618,0.13865217027157456,0.15661821134605297,-0.05695188060868683,0.07286308566974928,0.007074934335364813,-0.14654787288608945,-0.0024002485523600746,0.018657828040657187,-0.1162269922734962,-0.02061087071243712,0.050082595271726586,0.001647119637031402,0.01568736079359133,0.07391933245167062
HALLMARK_KRAS_SIGNALING_DN,0.06006051624548975,0.24845223511165943,0.10701226731495818,0.02772865362949783,0.18151551809039668,0.15969689988121347,0.2216529601315589,-0.036928804507061194,-0.05698863776714257,0.08801707338492523,0.03941767461528277,-0.05574961220865191,0.12411614577937764,0.19193943199870417,0.014560551644337984,0.1179828372452324,0.027899548612461172,-0.06723438599556643,0.07247034308829471,0.12206925133586999,-0.028714918210124812,0.025979229022927833,-0.011987626704682787,0.04571393782591056,0.18416615570904385,-0.1463038260867996
HALLMARK_KRAS_SIGNALING_UP,0.007152519408635308,0.11113471630223681,0.07492128069200323,0.03525355761187172,0.1849539188585076,-0.0018649493634033004,0.1279866489837805,-0.06718010409961513,-0.1406359355826832,-0.07426859418566846,0.004715552235709957,-0.026022316441279024,0.22874125062218276,-0.037750329557050724,-0.06768128184434358,-0.0015562117880287421,0.10747762587099448,-0.0718519932808407,0.07882192289379567,0.057519128654676566,-0.03084631051868316,-0.02805963955013702,0.00488723998166746,0.11751058811112464,0.11168187487926186,-0.12318994231827678
HALLMARK_MITOTIC_SPINDLE,0.06979746279053439,0.2572469673586494,0.20779020251593322,0.08176906766620712,0.28717330572557853,0.10806973113144763,0.22494630599917823,0.06058030169006167,0.2128014619617321,0.0860286878694317,0.058750797413649726,0.06613779015814922,0.2878158050405999,0.18319183984274695,0.07200144657759329,0.019974473645737317,0.11630198593543069,-0.057374865739723696,0.05405450219790921,0.09258043692687912,0.021727927541374863,-0.02166965918088688,0.09328825964686442,0.10181676741947308,0.18160688208797432,0.001637954897737688
HALLMARK_MTORC1_SIGNALING,0.0060650511238896036,-0.09008859443276541,-0.16001935190383526,0.03938101018641006,-0.10966991652604963,-0.14086813709097154,-0.18031225417100097,0.03355726631649081,0.1839358904642281,0.03814124140994242,-0.00810319869275976,-0.023374148424666435,-0.02207442907959303,0.16741866064433494,-0.06351724606728075,-0.1473823704216818,-0.031111772144535484,-0.15311644008044203,-0.04963922549735704,-0.03658354692216868,0.01884409343174886,-0.10849888527977417,0.051445460260684646,-0.09532632285832257,-0.03317092345923367,-0.14087236065378958
HALLMARK_MYC_TARGETS_V1,0.013155640679053383,0.03804272827768065,0.13782863581037763,0.054155466712424834,0.21380024238250103,-0.06456977612172468,0.10098267688757882,0.060870398803417616,0.20197825257555208,0.0029445585770359974,0.06716115495817648,-0.03338016003626135,0.343576377695629,0.22628359569621356,-0.24514877205682187,0.06994324386752729,0.03360889485330657,-0.07048793880332405,0.09486005791315918,0.09866481916111078,-0.08192814975913394,-0.03347635967056152,0.06196954045042361,0.010227705853875687,0.02066973607807694,-0.11873842662700194
HALLMARK_MYC_TARGETS_V2,-0.01904572849508243,0.1229876606750493,0.14066411940980972,-0.014617110757099884,0.18554041762614118,-0.019884186034886404,0.10175390586189219,0.08735617954940518,0.054901992682693426,-0.005652126856149822,0.09778699379527106,-0.0476245487870111,0.15833432635080086,0.2467877771919491,-0.12160257276322707,0.012670011303014208,-0.032707287288030365,-0.06883309642453034,0.050489958423077914,0.045735463652931865,-0.09413982034593014,-0.02178370123788739,-0.037200751412792575,0.014248911475848483,0.0457093327097418,0.09326057661165439
HALLMARK_MYOGENESIS,0.027796713632257667,0.3023780415485196,0.20302412027901023,0.03323886592722323,0.21136945312436053,0.10673163877394981,0.2541092049239336,0.026452395607508648,-0.11755463490174599,-0.031102396218776883,0.07197590339631954,0.09692085134559045,0.15113498265149547,-0.039821578695081586,0.07976875651482544,0.16454996001936406,0.0837151648166145,-0.0666330348552766,0.08858763223072605,0.08230796649051902,0.05955161614373524,0.11964374939884641,0.004939909241124826,0.09425034863183178,0.19296662315505503,-0.03763295125433467
HALLMARK_NOTCH_SIGNALING,0.020383263651676396,0.33960051541529207,0.19799110788818922,0.06027480186651341,0.26949491389909214,0.13045614746921846,0.19862346082236987,0.11691761192563227,0.2175006277832666,-0.010772574748507078,0.05477097496808199,0.015546050626302063,0.33471465392900634,0.1720101777905568,-0.13728057119016474,0.09765666592505709,0.03569204019061368,-0.10081729573693043,0.08758269041466687,0.10007125977671678,-0.06711410576638359,0.03150632529715831,0.03505129104560264,0.07631451020556573,0.13576712882641911,-0.033212759521279896
HALLMARK_OXIDATIVE_PHOSPHORYLATION,-0.017974306762263727,0.2533375739895986,0.10327679272369931,0.03997619169646598,0.21867530255326462,-0.021466362326617482,0.18022036001113198,0.010930039014450117,-0.1822659535672443,-0.028112119455585272,0.030037082033348515,-0.04620609868298243,0.3286634306146454,0.013837666504104278,-0.27774492300403547,0.05413863749970519,0.05843160575866132,-0.045757568841711234,0.10386283134104407,0.09955655958875834,-0.11219688912900859,0.04128338895217157,0.038429196957848535,0.040904983253251016,0.10980688694676329,-0.14031769118048493
HALLMARK_P53_PATHWAY,0.030278149963007484,-0.09334081576150532,-0.0019353507312896792,0.01151545667867511,0.08981215205598521,-0.0719713044566416,0.10107420902840944,0.05255408300092026,0.2085715493686475,-0.032457187240868636,-0.0227419329067128,-0.031612557321016484,0.13344595207037105,0.074461245144152,-0.16521528050116013,-0.12399999012506308,0.07929906600007496,-0.11197430767511664,0.04676513112469952,0.09757997843324837,-0.016278946996892682,-0.014523771665786809,0.09438395694319507,0.012662071280785107,0.019196844245181602,-0.038160434061713634
HALLMARK_PANCREAS_BETA_CELLS,0.04493385149174592,0.22213611297977012,0.18841713697539192,0.04137003748337252,0.20511906284853051,0.12851148363410694,0.23268805933153752,-0.05650609321944117,-0.20381835798483383,-0.04807648929473158,0.04077850436632724,-0.0636082921441662,0.32316772664013227,-0.06737539456791833,-0.2606658557476073,0.17975825905078788,0.046523277301780686,-0.0017731657138023735,0.11174282057647593,0.07222022379358803,-0.0072496600310323536,0.04086678883498068,-0.05893208999381321,0.04484996020697201,0.13921557103062007,-0.16810858624641453
HALLMARK_PEROXISOME,0.07035761432730041,0.06248946804838432,0.14862617378590018,0.07956820980154002,0.20084906556014007,0.11571506029009482,0.1774882239170948,0.09314496573774156,0.035324274250003555,0.02360388706460442,0.03082231711230225,-0.05731319538443227,0.16601744923933187,0.05867258535022296,-0.022633177266922034,0.05778083308189897,0.026425493692827973,0.0027623485716331128,0.1326987949280069,0.09302469097858491,-0.010160496144613208,-0.01363687112519754,0.045705389155641124,0.011457508578641525,0.07647942147945717,-0.15805032798743465
HALLMARK_PI3K_AKT_MTOR_SIGNALING,0.006312843756107388,0.1935044190488825,0.17285915803549787,0.08358728899426876,0.15387815943493474,0.07709764306359067,0.20017409298374755,-0.00981231812242747,-0.03422574435883181,0.004263598992108512,0.04129474365453675,-0.06376646204142222,0.27822475063556107,0.0028246140446147464,-0.13444992902288191,0.10182453721261114,0.07862582592248282,-0.07297216616338761,0.08192930698982717,0.07540843197634933,-0.07793798048188906,0.004820697770396861,-0.024800382077661248,0.07443982200816956,0.14457536793967235,-0.17761147230728394
HALLMARK_PROTEIN_SECRETION,0.026829266960686896,0.3033668887552261,0.13577736493730402,0.026566341030349234,0.23165960503001215,-0.010653181038989976,0.16220074890099784,0.0018006684368332432,0.11837801673672552,0.08596035946291901,0.05468987227142797,-0.010908390114844995,0.3250957084412262,0.12994945878709557,-0.04397057505287634,0.09038704648027612,0.0790382437326554,-0.11024170470919309,0.06401367723148049,0.07840461605987324,-0.07093884191049712,-0.01287714450529714,0.02658215821684464,0.055776232380840146,0.11274274845559988,-0.08855879426484195
HALLMARK_REACTIVE_OXYGEN_SPECIES_PATHWAY,0.08680579004245369,-0.10170929160018519,-0.045423106839008937,-0.09610428011805038,0.0891084688379313,-0.11785148626823332,-0.013270161289314958,0.026104946947156416,-0.07980212222894224,-0.08881472126535232,0.05373772616311823,0.1781157921574579,0.27375162148499826,-0.09307652575023191,0.01097600026105023,-0.12101661045545598,0.08562737693475937,0.12301607334981528,0.09691484790260259,0.08795562621923553,0.14862637347002972,0.07000891795566679,-0.0028801931193845752,-0.053946770375054805,-0.035095786078316114,0.1254658132266302
HALLMARK_SPERMATOGENESIS,0.018074109496443218,0.30188239040094567,0.14986416145374226,0.05506079724755429,0.23576399213631632,0.11066995058197279,0.20183554531711997,-0.017558712004179414,-0.013891077160899386,-0.07947930545891937,0.028350322172097587,0.010384271366512269,0.29217487006797704,-0.04023020250015183,-0.11611226074631434,0.13569207047116416,0.08413277380105734,-0.02129643056760552,0.10684271876463075,0.07926120319383545,0.03365227515650208,0.01852003575027598,0.0033107174794053777,0.06431366915860076,0.1486199174857855,-0.0661489353430437
HALLMARK_TGF_BETA_SIGNALING,0.025345876974963072,0.3000636317553641,0.2116383578487363,0.08219621326054485,0.24518993220988894,0.07656258869743104,0.17780438388930012,0.07251097183256446,0.1934360580485522,-0.030037209814826837,0.06483444286287766,0.02546213476455663,0.2665012445909636,0.19504989227807268,-0.007296390064362272,0.1037973963405233,0.025737837613836863,-0.037390847958669225,0.07896612525174672,0.08765387167102455,0.018640878835781572,-0.01981689779166319,0.007950290593693177,0.12041775102033819,0.11471105565232902,0.03012517118970789
HALLMARK_TNFA_SIGNALING_VIA_NFKB,0.04148215265770787,-0.015350265711052715,0.007649307979351661,0.006143793457927413,0.01765857793933148,-0.05042888454691135,-0.1068211558115078,0.05773692676454774,-0.24510717718621122,-0.024676313560759743,0.039380103561449734,-0.03326888649741676,0.1138700994173853,0.10724409895695,-0.09535541353658848,-0.06073576815019202,0.023937922744714128,-0.09631932655228762,-0.02663776366027944,0.06373776249528516,-0.09210585258447158,-0.1463289453434234,0.025622642038312667,-0.06773645766565868,-0.042511933479175534,-0.04398221042000384
HALLMARK_UNFOLDED_PROTEIN_RESPONSE,-0.005249628065622096,0.01496448081152459,0.06516926764333456,0.05849354786651287,0.038577845144118904,-0.06260171967922472,-0.05870060158465106,0.07708197738772697,0.15871697067632926,-0.032755729772308166,0.008524844035429609,-0.013182557172086443,0.3107173183720229,0.194436929725504,-0.15743020012660947,0.051419201475347655,0.013364295999950123,-0.08758791976910899,0.056945423517762495,0.09997406825994797,-0.10133251071009697,-0.03705271352128915,0.02038447235862773,-0.007932736952207019,0.005470938158672986,-0.05993358038912614
HALLMARK_UV_RESPONSE_DN,0.007893843838490337,0.2733469369772539,0.18343143935513276,-0.011753933625037708,0.22526356396453515,0.06924054657972419,0.22802844143522435,-0.03167517358736274,-0.08398703361321479,0.0435816445357548,0.029100830335442952,-0.019978919376388175,-0.03605381519424464,-0.05825520539989317,0.09756176318633157,0.08891854699341431,0.08527990844624365,-0.03510609542756221,0.08459052580024287,0.07076593019177989,0.0006576160416605756,0.029664754500250717,-0.01815053680084489,0.04969941631067547,0.13217930167721215,-0.09477248024734565
HALLMARK_UV_RESPONSE_UP,0.01631868937504238,0.12071945439801147,0.06272086360499422,0.032902887711609395,0.13025490382311763,0.018735728076403644,0.09798608920731211,-0.03142989468960277,-0.26899973840373603,-0.08412420442719862,0.04701340913322531,-0.00700329121795127,0.17340524213854092,0.005350656702694191,-0.16469284672042964,-0.006782507385945481,0.0431180790454937,-0.05185938495491202,0.04440430505853284,0.09159412664079138,-0.049965036384777076,-0.018011483739702495,-0.00829546690958925,0.015479595411976637,0.13376030367858643,-0.20002189340892687
HALLMARK_WNT_BETA_CATENIN_SIGNALING,0.06630280547578894,0.1811374623797709,0.21775640259882817,0.0415691080194307,0.11615744266266827,0.09513735105951208,0.1414622350426063,0.030353151497504893,0.26134354067736076,0.10602769449102453,0.033518575763841235,0.0030839202712188906,-0.016477410953222995,0.3120320266083889,-0.034408893182318344,0.02998092969983613,0.06779042261783766,-0.10200347431057312,0.05810930076495954,0.08865067007894817,-0.09104758103969025,-0.07883685234922265,0.01348137714519457,0.08290038552788556,0.06991139111540903,0.11380793370807085
HALLMARK_XENOBIOTIC_METABOLISM,0.032505005036680405,0.23288911531331785,0.06719415257279834,0.0786368589435659,0.05803783749248844,-0.035169452006905536,0.11051951767436353,0.03178963663111488,0.0981607008922967,-0.02213500923033882,0.014921784858426811,0.22568765622891931,0.20306432989241707,0.09611633328195977,-0.15702175372907784,0.08669413048796416,0.050790343027547424,-0.06597376160405473,0.05076240456761955,0.04743439053820623,-0.04517824312579285,0.07248723905518148,0.04793604086812433,0.0706557069248932,0.07713144086484437,-0.008255663723295429
