,MGH258,UKF243,UKF248,UKF251,UKF255,UKF259,UKF260,UKF266,UKF269,UKF275,UKF296,UKF304,UKF313,UKF334,ZH1007inf,ZH1007nec,ZH1019T1,ZH1019inf,ZH8811Abulk,ZH8811Bbulk,ZH8812bulk,ZH881T1,ZH881inf,ZH916T1,ZH916bulk,ZH916inf
HALLMARK_ADIPOGENESIS,0.09075301888031964,0.1449517274146377,0.21841027659123086,0.08997803149317975,0.27546553113709943,0.10173098155171058,0.14857591825416408,0.044533362827344714,0.30804481987873605,0.09609991095033249,0.040990433891143596,-0.017209802449008993,0.25580311683824103,0.08054696429379254,0.19391635343897184,0.09954513137456976,-0.006531297959338626,0.28076212160520964,0.13342574124897896,0.19560077806312473,0.1680891413697858,0.03944922491848596,0.08561557374541205,0.39141891906149356,0.2899212573186936,0.09572174638624564
HALLMARK_ALLOGRAFT_REJECTION,-0.006495378932615431,-0.007073005911790624,0.22173784549160516,0.02588554153062947,0.11881498808586324,0.05598546079346225,0.09937183408798933,0.016765200218715554,0.4013083393206516,0.16312058330114906,0.015012402731728667,0.16646804342805088,0.17077319401198124,0.03734000527919772,0.14877777925255847,0.08636562497297649,-0.05586902502685589,0.19732988954468597,0.08752572529412798,0.2467042254310482,0.1083969019203604,0.1550058917979147,0.09619564754198959,0.20148694853503424,0.08691353858794651,0.006746900089898313
HALLMARK_ANDROGEN_RESPONSE,0.0664770992240956,0.06149444618106489,0.24160491625004502,0.0425865186952649,0.13034065957375834,-0.05406591463389201,-0.0266976690939934,0.0658554673069721,0.3757859720174123,0.1924217331232369,0.03732775603546883,0.12063821964603337,0.18031290316299473,0.05947032717888973,0.1877965244837665,0.06719080311951278,0.026669424930921448,0.1351604994383226,0.21060049894430397,0.21700971910785558,0.0840805264309645,0.18713971675269722,0.00204104602213072,0.2414267730280732,0.32732404865891096,0.0794318833936322
HALLMARK_ANGIOGENESIS,0.045258979296393435,0.15316888694181136,0.11584878192108389,0.014349402888908154,0.1437443162977759,-0.04338804934420046,-0.018616973218983656,0.05400046978255468,0.40126957975349525,-0.034633595793798135,0.05043486031894978,0.1106711334599166,-0.23116707338728285,0.04159911117279093,0.15570561906164782,0.1111657109884098,0.11338126690165311,-0.027033310199978785,0.13992543791892198,0.05104788756417016,0.06554137572381992,0.1588127386818084,-0.018410931301598574,-0.2396244180463958,0.18446772390860067,-0.13859711814935677
HALLMARK_APICAL_JUNCTION,0.041907262703179037,0.08143441566255791,0.24094139482987326,0.13356180535408893,0.22418057082677625,0.11136490998691383,0.16492263180986896,0.09502263924476687,0.41073002932406866,0.11581247425978167,0.07716035575926866,0.0703092634335433,0.21693873083810006,0.10701029652885072,0.20797645474011692,0.10677944026994132,-0.00381732042325996,0.28707330314552193,0.18165607250138152,0.20277743781318722,0.17775775954541628,0.13290305530506247,0.135542427571447,0.29889544663318535,0.2926549341656011,0.13016339392863308
HALLMARK_APICAL_SURFACE,0.03736705353991781,0.06712933585610477,0.1291615889552337,0.03634978264198109,0.18462538011732427,0.08329284955317749,0.119783118686242,0.04526555736358561,-0.1702195084384358,0.13472809838137653,-0.08673028166737554,-0.1711439638898643,0.1461063201201637,0.07358802329002341,0.06529577424634048,0.12395318964557707,-0.06453366866976856,0.24501511433495093,0.1984723083787839,0.18721811197376664,0.11377721337168548,0.06872556147500705,0.051438466143588726,0.2121052256934328,0.19613192161878054,0.11574907538649178
HALLMARK_APOPTOSIS,0.027183389150637758,0.0287779361619641,0.19813240373686958,0.021095604383412143,-0.025752382321648986,0.0027055633197984185,0.010795556606505415,2.7753467523617272e-06,0.17970789356436914,0.06351765587158278,0.043401832475787744,0.12750737360066602,0.14368591302786285,0.0051986367828494055,0.014886866634573588,-0.0694163962409595,0.00698587667571842,0.09006235254906661,-0.009167874609045746,0.027382318233626704,0.12079798841040935,0.02864362703421811,0.04011724861469015,0.18187692210062528,0.08144071474495138,0.01655936562802233
HALLMARK_BILE_ACID_METABOLISM,0.036501230612986484,0.16568460747751781,0.012312182758625615,-0.0335382384853704,0.210534880152776,0.10162490226174656,0.1656082972657643,0.0452174576644035,0.3968604100904437,0.11312062891418963,0.10167817894115991,-0.021162441555109702,0.17623497528603466,0.10633680074235663,0.07622013453132255,0.024751749742997427,-0.09465740492076717,0.1278641783775799,0.1464274491574462,0.16199382931780243,0.15457924680242238,0.03719989108819522,0.084153444284375,0.409753371099358,0.2848583528833221,0.04907962660276186
HALLMARK_CHOLESTEROL_HOMEOSTASIS,0.10320319902386482,0.11013818606643484,-0.043056530574627765,0.1055769056010608,0.2099835954968266,0.02482168729874247,0.21385589455215695,0.0708721008939912,0.3167507337504651,-0.0247887912479029,0.0541870543617278,0.12753932872683363,0.25750712649560065,0.06173182146910039,0.15019868760062247,0.0012566536269373507,-0.0512056015631507,0.14957248592192413,0.1686842132917284,0.17863834416935678,0.17730135721910728,0.006145212253629738,0.09996948869807126,0.41276704582421514,0.3024582028483078,0.10963378380647021
HALLMARK_COAGULATION,0.021991898128105657,0.11516707418760376,0.31412109976181807,0.03605042838025609,0.1961047195655112,0.09606241641807163,0.12468632939860856,0.01169681695971516,0.3887978877679764,0.1286807996636364,0.0669010401587661,0.2093778371809909,0.013923538860373468,0.09745415867555324,0.14485842995290696,0.1362899944362867,-0.004205932475620346,0.2673060721535821,0.1647909881251947,0.21075071489592745,0.2094964907950298,0.03556919642732855,0.11534655547395795,0.15948940174209827,0.22277190314734802,0.022665953692872578
HALLMARK_COMPLEMENT,0.07125897813455241,0.12392014308719185,0.1793157358537126,0.035904137528242265,0.20283248911442217,0.04746214714057031,0.10572834015966225,0.04773224369284339,0.41915373338509104,0.04432638714607099,0.008505378211448682,0.1502906540552912,0.22459026855488667,0.1168430886292208,0.19138824469563706,0.10794537020231595,-0.06542379431418821,0.2752384704578139,0.18891748240311887,0.22990883171642154,0.21628450752236425,0.04098314158194305,0.1285183207919304,0.3774633427321957,0.2290282915167843,0.03090877721023164
HALLMARK_DNA_REPAIR,0.05635847161128311,0.12216748155733455,0.1460660890956952,0.14282987597829927,0.23925597582090666,0.003917562218303056,0.08382541267789499,0.08985705573751221,0.42006438878158203,0.16922830496665411,0.07560979492166264,-0.04481996479481793,0.27739145546448246,0.13436800313322222,0.1616315414618104,0.07304705860438461,-0.008065114485952587,0.29117193348582476,0.1902886142656055,0.21575498314168842,0.20262257156763033,0.09910671936683736,0.16323188737221214,0.43687001911080464,0.33661734799517884,0.16638237855568772
HALLMARK_E2F_TARGETS,0.05377094576509643,0.0874709066665512,0.08341836941066973,0.10182066157673217,0.26532007449986456,0.08526065535506239,0.14981379522790841,0.07487328680350357,0.42198231812196774,0.138766327544343,0.0019491781940487451,-0.09238363125585408,0.06995563143635912,0.10998165584075556,0.04590437750671514,0.08087229408515409,-0.06364578287763162,0.22697795755668027,0.30853592179930545,0.21060257724874426,0.07737948764788402,0.14705998859899297,-0.018129263143299334,0.3336065916485634,0.2873661514642547,0.07461422646064617
HALLMARK_EPITHELIAL_MESENCHYMAL_TRANSITION,0.042140389402773336,0.09817214211085355,0.2563065716756356,0.07551061824893242,-0.04604314162383859,-0.08644162649973643,0.08336168630639665,0.06680035743392801,0.42405689834735827,-0.023666902356019606,0.0652873565856939,0.16613011826049653,-0.20092593877981185,0.0758155027762761,0.14818570067026218,0.04471824578834054,0.0446483343019837,0.26407356956878114,0.2024417454504129,0.13666869518249528,0.19425539436261238,0.1908611257958508,0.04635981633706726,0.05535059221685483,0.2133603153521774,0.06094797775043614
HALLMARK_ESTROGEN_RESPONSE_EARLY,0.0513776343589554,0.038467139634669176,0.1010568669574298,0.09493036174780647,0.06514633891552463,0.02840864308082242,0.01837764372353825,0.02524248135879039,0.27187141887023153,0.05251860441574688,-0.0033591488843791205,-0.1368625523708049,-0.24361556719640784,-0.010180434907881269,0.0755198018953691,-0.0422285401135115,0.0909567005748426,0.19975543975685311,0.20693551533536755,0.17372027658440095,0.22351652175523307,0.047192498774594596,0.10031005584610578,0.3214869523006332,0.2610707810584635,0.08955599964581054
HALLMARK_ESTROGEN_RESPONSE_LATE,0.04091606604929783,0.11768095979786466,0.15861922315151164,0.05276518282652225,0.22453754560755476,0.05359422461066754,0.1386048908385214,0.021880098015800535,-0.07271798454361456,0.12230952796909272,0.027223482806382697,0.10557933435610052,0.27120041585039917,0.04088021111173077,0.1061830574032834,0.08726564576935668,0.01857004951605671,0.1110230472137894,0.17931569522098703,0.20576504847763913,0.13093401733024493,0.10845351705183146,0.049493643711460304,0.3627374697025158,0.13969816349947523,0.01617534779817488
HALLMARK_FATTY_ACID_METABOLISM,0.0486372803283357,0.0322351465784201,0.04943456918612273,0.08645772613028914,-0.12413648480871357,-0.06642374452467942,-0.019900758288999797,0.07755902199025075,0.27042575008893793,0.03419393485327481,0.0004280441448225336,-0.012217885572888616,-0.17371138271532954,-0.0019486110751707887,0.14424924476139034,0.0405677821287388,0.0076330363146569526,0.08057793042050872,0.06263516356682985,0.030585874631715613,0.07374457652978915,0.029540168205249344,0.06242830603593324,0.2646402343855732,0.10804382448884164,0.04841628540092505
HALLMARK_G2M_CHECKPOINT,0.021087119823956103,0.08815876933508963,0.09631541760455006,0.07565677701270736,0.13128198848549794,0.036129722612939924,0.0398773187892041,0.04273939015195052,0.42039718116122893,0.12676499184403675,0.042805572820917646,0.046434279668574746,0.25494823277711437,0.08071675625447282,0.08554259639861994,0.005040077695290921,-0.019745058401533674,0.21034929888500117,0.2655826912304256,0.18882418083056235,0.16071019131849892,0.11310668808090976,-0.02779829489049335,0.3391441665159871,0.284142794476271,0.13494960648486137
HALLMARK_GLYCOLYSIS,0.022838236659234814,0.09919343665505846,0.03990641952716949,0.06893012494549366,0.07214516147577649,-0.04708086600447673,-0.0847044839332059,0.09137934421280254,0.3029287938318889,-0.07357197765579429,-0.025475668064554324,-0.14493638308183104,-0.07313534741321179,0.05502361500488762,0.1573270223830953,0.017451496574651185,0.12523331309035113,0.19658924222896737,0.29766674505834473,0.22241399600781317,0.14390252994375635,0.15333271709356305,0.08638673352694602,0.39350048299824786,0.25705623526500754,0.19490911358369592
HALLMARK_HEDGEHOG_SIGNALING,0.0498581743898232,0.0082633598113668,0.04284020015371886,0.09093902935708183,0.13123050623013557,0.09323654353448482,-0.058269200776949914,0.015295084791213921,-0.2085061228588932,-0.001139103953601698,-0.0659213630732134,-0.22172769660828173,0.009601709242379368,0.01720661422941595,0.10551314910920748,0.01613030015827061,0.024542497374799268,0.2245110470295326,0.254772925481388,0.16249462008780727,0.10177025205838089,0.04436912407404453,0.005286110676675978,0.281726750606856,0.042113838567151354,0.10318784874843863
HALLMARK_HEME_METABOLISM,0.048762452839494166,0.1096357585313226,0.24689704706234628,0.07952827667191666,0.21988277504321746,0.056489790319553625,0.1438448993299113,0.0956826179647169,0.39877564266338533,0.10282741694449365,0.05279132544405267,-0.042341823177103416,0.14099001005554457,0.06927838917509581,0.2079812880846737,0.09925023091169329,0.02712584004793054,0.236806090148029,0.18207768548874592,0.20602754799319184,0.19602871531089347,0.043524895871023844,0.1341677061147997,0.4190986044659862,0.20403032794879927,0.0787816605335029
HALLMARK_HYPOXIA,-0.006973995604930916,0.01042151256553457,-0.14239402822728836,-0.014273207843491535,-0.22111951391460405,-0.09354356617896986,-0.09372728603450992,0.056319081869489085,-0.12161650407084636,-0.031700438069431354,-0.005088334392268449,0.05495832532383934,-0.25169453050733526,-0.014879679938843078,0.14925085586861844,-0.06373561693080516,0.17924893686996754,0.12892327003178874,-0.03415775287887725,-0.051785078947925584,0.13472167687514244,0.06271192896751346,-0.032899946803433174,0.13844115392419418,0.10912005937510355,0.040021249476418434
HALLMARK_IL2_STAT5_SIGNALING,0.07329911079274701,0.08716332793013326,0.22286680420184807,0.022317758356433032,0.22133721919690347,-0.005070767446257843,0.13361203163615068,0.06324448766542748,0.40043811677038144,-0.012618313160038114,0.021660636043546656,0.009681037056716546,-0.043648907105121745,0.09889663068754483,0.2652342360925201,0.11900015302322899,0.01133326301092288,0.16373436626629398,0.23768544147765472,0.1887926006594993,0.1391252942883164,0.07799672979061856,0.05632469143227942,0.3192602732841479,0.29857506642377724,0.08378082990607663
HALLMARK_IL6_JAK_STAT3_SIGNALING,-0.021442850179771784,0.1268487943447756,0.27115527845012843,0.0942211796252444,0.19825234482926132,-0.03666399779613579,0.1176014975116157,0.029833307751629567,0.3363801283344957,0.09488454843587554,0.06474977965324152,0.17292768293247512,0.22265375641102367,0.04639574816496421,0.10130729090597974,0.12899574975584657,-0.01270272631859049,0.07771881032431234,0.2530542263019504,0.23500752155811455,0.1339538776372296,0.22263910519295504,-0.00472048548052257,0.27832173134166727,0.29177851530505294,0.08349211827031032
HALLMARK_INFLAMMATORY_RESPONSE,0.029326405359324487,0.06705779792526947,0.16095787392214703,0.09148556928104304,0.07030174982483035,-0.0014702387388319923,-0.038074250303243566,0.03457623440145752,0.22530802735642277,-0.08585964902524289,-0.004598485461352568,-0.048125867847427735,0.01909308864137171,0.05189280501027408,0.022069302408749075,-0.03286735322926507,-0.053900027924852864,0.131502356680493,0.052503382160878444,0.06658755136030348,0.14742563300911707,-0.011466702730940664,-0.053022926018858565,0.12420986350156248,0.16504513913627883,0.07052011454769039
HALLMARK_INTERFERON_ALPHA_RESPONSE,0.004018704782260972,0.10433334084916501,0.2067797423949915,0.03714900847075025,0.26799083996265405,0.07615330682403557,0.1417404216137659,0.04143404785529494,0.41290394858497254,0.18712441474391972,0.11514312505580089,0.14859437235790693,0.24674511873535326,0.11707329993811476,0.13849445583846323,0.10878026674268135,0.011448840316185148,0.07281163209608377,0.16690845920378244,0.18702813804003587,0.07143310461179812,0.06333054154411728,0.13124853485074622,0.343162206244317,0.19297594263472126,-0.003639564976730263
HALLMARK_INTERFERON_GAMMA_RESPONSE,-0.02135683809430471,0.05628321736340845,0.2913882461264862,0.06091425597708309,-0.079219028239965,0.005898043751651854,0.07093079445845034,0.026776967790727985,0.40590862366225844,0.12364155291877385,0.10367162820833643,0.1846417298494042,0.24351082240174665,0.1081988055679654,0.23776013342737304,0.039441444106127745,-0.1068420251183802,0.21332059282344662,0.23481556955081884,0.18591686833887158,0.1629983197714474,0.09790599698585668,0.027058012320777126,0.26801931277634344,0.24628235440105353,0.030597090456777023
HALLMARK_KRAS_SIGNALING_DN,0.07573400583761036,0.1820618890525342,0.009750007868951426,0.14899767484856324,0.04479361991091383,0.14958253196881688,0.08054286613245527,0.0803088652150939,-0.05945297940438026,0.010759369963398335,0.0470536255166497,-0.16784477269708808,0.22002940332975648,0.08945193248259316,0.17514811509610276,0.08558543847323524,0.03943613311689161,0.17931479646359433,0.1696670858371117,0.16961541467956162,0.21557716201653307,0.04326333867258609,0.07069776725289599,0.4584518333634865,0.16916235739544125,0.10058740780042513
HALLMARK_KRAS_SIGNALING_UP,0.045850613129724965,0.06005060768012362,0.20810321729133896,0.051958073279940266,0.18202370840593307,0.08092227479153723,0.03858919798219921,0.007427678868396222,0.031054813129801337,0.12911605322594208,0.010318922011844568,-0.19211010016990707,0.2009797987924838,0.03198863844366411,0.2533064667390428,0.1621797115333264,-0.04184997972183943,0.197292151049418,0.17689014722772378,0.20359488048150443,0.1897210974560703,0.16715188733623712,-0.01914123118375097,0.2655104263675542,0.11571489026035875,0.09840134787700794
HALLMARK_MITOTIC_SPINDLE,0.08718091925430065,0.10048032987687751,0.20962682708492786,0.10747837172589661,0.26251823672950697,0.1113954370691249,0.09630650089600841,0.08507380004384915,0.3995554113171949,0.10610803000281702,0.0994283591897512,-0.08158230860927683,0.18535109400815877,0.04841389519615984,0.14302580212323285,0.0713010337651823,0.07413188552653482,0.24696159968419484,0.23694520540853412,0.20419479871763607,0.14766817637412188,0.13110965018118212,0.14475733201763866,0.36807907912753246,0.3065556449872047,0.15270457921768305
HALLMARK_MTORC1_SIGNALING,0.00812000289787581,0.057120255889459154,-0.07281683368264616,0.04899186262599482,-0.11178421051662693,-0.10301385801218671,-0.1195593517748836,0.0591090421872973,0.3171324299759008,-0.06891755542250443,-0.0044313794046068,-0.059920907417471296,-0.12334742855408257,0.015811128691130154,0.07085797062234579,-0.012500621815197368,0.1817743262636436,0.13984350776804272,0.2086088150124113,0.10916162023794523,0.07440998157288133,0.11528442609188289,-0.00013788799655416555,0.20822821610920852,0.1827734440930987,0.07888388629244077
HALLMARK_MYC_TARGETS_V1,0.05732634735493915,0.03414607767012971,0.07781195636275404,0.11850557511902239,0.16298064619277775,-0.021784571292982353,0.059209851579015774,0.06844010771396963,0.42740064693851315,0.14992761091103363,0.08628408027678883,-0.07543686534538532,0.22578714787940102,0.11820054535749214,0.14747083430812244,-0.020028146411327816,-0.06057660094104464,0.2758930100925376,0.12287394867519323,0.18767173360267683,0.17084027924647407,0.12002343171435247,0.16493116515109635,0.3733648047436323,0.31624628900843504,0.13634157426217008
HALLMARK_MYC_TARGETS_V2,0.04838945337792277,0.03256537440090406,0.12781692813614262,-0.027808786761662836,0.19190416094283025,-0.024537201367603952,0.11317129170764717,0.008103243077385403,0.18988621251813048,0.12890551700322553,0.0006798047393715722,0.01504535423650855,0.05191424181980292,0.09207505780633979,0.0610894657885818,0.05156678143228019,-0.08046190748457753,0.08488189674095324,0.0776031021496778,0.10700911281774306,0.10930581506515633,0.10422171078749598,-0.008855312403242641,0.23371268992736927,0.22010420904392353,-0.08033292246011721
HALLMARK_MYOGENESIS,0.0776629361095934,0.08769604509976986,0.2456803195353278,0.05113805367172498,0.2845103342127774,0.12145812757761573,0.1581725372062074,-0.010332644359407431,-0.020048839720734155,0.1599341756213161,0.07575761448077065,-0.044173128407597545,-0.10840171572431336,0.033196368667606134,0.08106051776099617,0.08162382471949689,0.01659276078696991,0.20674726356206416,0.143682415133641,0.20019680586940036,0.16591731904280121,0.018556337598237705,0.14329802399724112,0.2388869035966925,0.12661389437324239,0.0644052013813719
HALLMARK_NOTCH_SIGNALING,0.042016617736791294,0.1385430729683744,0.15699160260652406,-0.030977076967897768,0.22299732213497592,0.13015734994746395,0.13241930202154442,0.030198082036093477,0.40021757563432037,0.15310391927646982,0.08807144474343537,-0.03957922843629015,0.265037202384992,0.11005241913506754,0.23085704230270637,0.09240774848385759,-0.024352045007515397,0.29331221923965006,0.16322861141862455,0.17562285672658318,0.15274017211726337,0.11708470652961675,0.033552719388977505,0.36795182787157993,0.2683755338627115,0.16014503954656586
HALLMARK_OXIDATIVE_PHOSPHORYLATION,0.032324525442282655,0.09197801554166174,0.01705824742320874,0.13234845051820782,0.19965180412007077,-0.00035606370886010126,0.051463599247213644,0.05125838669440494,0.005496476742921092,0.04237539173189757,0.011392162503661367,-0.11779117657179496,0.24060692198141875,0.10919676766987452,0.09677993565286887,-0.009923666335835687,-0.017642987177161517,0.2641417208648198,0.10828620433674196,0.17896022042059775,0.20373156012606303,0.033579445202157936,0.1780647786994577,0.4229018013602122,0.21864067849259228,0.10205909473118724
HALLMARK_P53_PATHWAY,0.0684732499429683,0.05264768353767297,0.08797851287244875,0.0751354173751118,0.1409117772927145,-0.021038489977320492,0.03472615191523012,0.019815920062998652,0.4057757350509682,0.14713452534482546,0.08920697471971463,0.11157254918561918,0.1567379441723122,0.02918972435387334,0.13581739860814954,0.022737653904906407,0.08890979556735445,0.19975344764204586,0.13023685254915712,0.1767361604455877,0.18759538712447457,0.012175189869957331,0.03381434285454075,0.41455681656872423,0.25636665468744363,0.08942458197263342
HALLMARK_PANCREAS_BETA_CELLS,0.06208197047912742,0.004640335569138651,0.1407866230461117,0.0796443903284494,0.2008484923923182,0.0968592527342677,0.08543452041134757,0.05495695725103728,-0.09087972945571741,0.08045725103765863,-0.004315320176657235,-0.18385193773108885,0.2520469921987241,0.12418279761478136,0.08886470297217115,0.043826827715339606,-0.023934579205873552,0.20049826609059895,0.10297059001567771,0.1498558594377602,0.13131091307240506,-0.03902898285981987,0.012805589913531312,0.41427057893865465,0.053742726919530255,0.02168744793545264
HALLMARK_PEROXISOME,0.010711647918763919,0.052331507332613596,0.24911234321238432,0.07032390863636748,0.2002168132575569,0.05752959078421319,0.12497133564923407,0.007159730368118416,0.18202807794749495,0.06668301556844679,0.005628028549770441,-0.013703306604403956,0.03872740104362912,0.011050053635246353,0.09675466932888342,-0.03134727288131186,0.07788601243622063,0.17756972668548918,0.1482738591596831,0.15277074107985555,0.10408065504438825,0.04823630548205324,0.0502362831472529,0.30146768228000753,0.1791522856089049,0.07389756496607233
HALLMARK_PI3K_AKT_MTOR_SIGNALING,0.01295429373114445,0.04384100192572471,0.15350495920563634,0.11792603263582947,0.1572910289814459,0.06264921182600333,0.01083382745956273,0.08949294465415777,0.21019073340187,-0.016186054698270974,-0.019310280366621392,-0.12861040412239902,0.2180886810796417,0.052733560324038586,0.15288576682294494,0.01811672415131505,-0.061516012610434295,0.3335779697024076,0.16257212196364673,0.18096251703769264,0.1971244282736719,0.10145031435221917,0.0457898400035421,0.3485274758087467,0.2813150227879007,0.10257218767319261
HALLMARK_PROTEIN_SECRETION,0.0449983952648047,0.13111694869603716,0.2358724985431037,0.15489837069548762,0.22195247881151134,0.03660949960733116,0.05490755350126765,0.08423620702073815,0.36334210359460395,0.045518850482463465,0.06698324089579902,-0.09872265911740391,0.17061445628401395,0.08652402704462851,0.21277733196339407,0.03314989380014607,0.04390647482150279,0.27011170145996466,0.2305685936894395,0.19556258045585323,0.22032817209092928,0.13216443574975273,0.1378330067894127,0.3923566417671429,0.31488951988001124,0.10864059199342989
HALLMARK_REACTIVE_OXYGEN_SPECIES_PATHWAY,0.06960991890685059,-0.0802025912715819,0.18052013299402145,0.06140637517868568,0.08677150893362658,-0.07072244388126929,-0.03265749024767378,0.005316469385685308,-0.16512349330041012,0.18338950021300815,-0.06727401225404472,0.21522013491464756,0.20444769623260248,0.046340097521505294,0.13289877522754348,0.09330089604717394,-0.07866592621863076,-0.0319730665711599,0.12139899334521706,0.16955222411198467,-0.07348326778006518,-0.09766627310415049,0.0832023355116933,0.37820018050307197,-0.02041966221389856,-0.06694547455059226
HALLMARK_SPERMATOGENESIS,0.04982280736088522,0.04952244739709999,0.1037447167440761,0.08714111866809111,0.2069506002945568,0.08677815103450008,0.1343765936977959,0.04413915366857923,0.1393432357013824,0.11264608234495375,0.025198612716890244,-0.18296898341161022,0.18797344994498694,0.002340825320553188,0.08369709496490767,0.08682910601340774,0.02841105152066636,0.11188396675151713,0.15695505071124138,0.18441984438363535,0.1370448819264475,0.06101056801337854,0.05910888678911347,0.39551894466609416,0.10946087532327475,0.10636915473071296
HALLMARK_TGF_BETA_SIGNALING,0.09437851447018752,0.1258239787490613,0.26072857062086585,0.06233707774035268,0.20369451915962855,0.033240086021294475,0.22489123935337427,0.05897469689165266,0.4392604849714905,0.15333271450861827,0.03511630420524,-0.03468414644250039,0.28606187414914697,0.10035457211704683,0.16633707499094047,0.09026027315989013,-0.10779988890419397,0.21238704542963277,0.1550882466636716,0.1838404953418224,0.08388189021469819,0.14255036194549855,0.05209188460108668,0.22395031907883947,0.33367398237222207,0.1546662037757607
HALLMARK_TNFA_SIGNALING_VIA_NFKB,0.07229566776253203,-0.017810570253134747,0.23000699565660057,0.04195725253277111,-0.013520348858570426,-0.05994972297972218,0.051041626789628466,0.050175208880435106,-0.24392173649308574,0.12409003808976099,0.03299094732002031,0.15506271523002776,0.25469152348981255,0.04403244654499604,0.23844420176700418,0.0018109701824258512,-0.02578838390476641,-0.014571460516331982,0.050955971318548836,0.04805233729378778,0.14805729180436322,0.1541926103016822,-0.08867959029337973,0.12039452741184617,0.19586721522430664,-0.05517212326209661
HALLMARK_UNFOLDED_PROTEIN_RESPONSE,0.062339578433344055,-0.017858924348389982,0.18481559667544045,0.08390286511143168,0.08072499130908009,-0.036158058936065655,-0.048018899855783864,0.1001977189924916,0.39115501805951897,0.04811644232751552,0.06049225786279448,-0.07236753989351527,0.18072783898170294,0.07960733925777955,0.22992390663355627,-0.004844175643572447,-0.02201190020863157,0.21780437371728545,0.23141023790236678,0.19653381293066358,0.20320130660074756,0.13592862010839507,0.08827019812348064,0.3573385721424681,0.30988911831258537,0.04978070105670795
HALLMARK_UV_RESPONSE_DN,0.017364021160865124,0.10595374445558195,0.23339723916000235,0.040013667552616955,0.201508879501586,0.04551535822612385,0.10251254995725807,0.024644543235571217,-0.00731864497962533,0.011644485739216701,0.07462716344922765,-0.17884206228406307,-0.21052198102956188,0.001811896262489961,0.12129619684887676,0.031842809130175294,-0.061977542752428505,0.1705586860382413,0.19106895179803363,0.1475991486132164,0.15369425391799524,0.06700815037837737,0.03209049927924521,0.21289085188341944,0.23898194875166823,0.13345126841758084
HALLMARK_UV_RESPONSE_UP,0.08926897289047675,0.042931665561634545,0.08975971188372486,0.08323997494949589,0.2104884444174506,0.03084291377796866,-0.09405622219933168,0.0803593847305367,-0.19468731717904814,0.17712552670359955,0.005767142847952403,-0.12913902637621097,0.2834353400260759,-0.017670388014353135,0.17740313068311028,0.07965661894211248,0.01298845356195723,0.17690327538945788,0.21573025788629646,0.21408312471604796,0.14730495254182405,0.06643028319865206,0.05185831690670168,0.3912087922602921,0.18659980930675188,0.05758719555469081
HALLMARK_WNT_BETA_CATENIN_SIGNALING,0.010823805600899482,0.0776617089580147,0.14888169141595517,0.11031212142399421,0.07549971469211468,0.05573768766164071,0.08069260123918486,0.05730313767719194,0.35436790588703637,0.02929398219318143,-0.0025662258604655956,-0.14015044085228828,-0.03066280221313612,0.028638750470600435,-0.05838697377170303,0.01131768771295441,-0.036278293838812675,0.16035924056955228,0.01679485807045362,0.07820621776919763,0.09510585745450334,0.14914076827044234,-0.008757207852814013,0.2310556390331616,0.20515962493722076,0.02647175040346529
HALLMARK_XENOBIOTIC_METABOLISM,0.05201939966946269,0.08785787867084878,0.13597830066287483,0.052844130016860696,0.0577519678523273,0.024044342006432837,0.07048570979773613,0.051857099516461745,0.22168038089868894,0.04794917895561241,-0.009610294462746801,0.08339908528240823,0.1908617028910889,0.04300027257891332,0.2003232211891402,0.05549737618083568,0.0001985260377273045,0.22579808083626138,0.1642214643165602,0.19032867744726395,0.20263587879399603,-0.021103506735712006,0.07839965432675755,0.4333545006380023,0.3023219572385643,0.044018379363179344
