,MGH258,UKF243,UKF248,UKF251,UKF255,UKF259,UKF260,UKF266,UKF269,UKF275,UKF296,UKF304,UKF313,UKF334,ZH1007inf,ZH1007nec,ZH1019T1,ZH1019inf,ZH8811Abulk,ZH8811Bbulk,ZH8812bulk,ZH881T1,ZH881inf,ZH916T1,ZH916bulk,ZH916inf
HALLMARK_ADIPOGENESIS,0.04900188826819563,0.03203999208268424,0.08809623970273205,0.07892422635584767,-0.23276421305592196,-0.000995177298247236,-0.17612336372946819,0.05097570324532355,0.1316897132741656,-0.11737505980594756,0.061352194868699916,-0.08304885394053714,0.14852646327254423,-0.10466999524886222,0.1637960604728644,-0.1486898662998268,-0.002915290604061777,0.014815351971366492,-0.22854161104004472,-0.09027355340313938,0.1395960833247674,-0.01900864937658693,0.02831405739587932,0.08686551269704375,0.08559954958712773,0.04500791575069719
HALLMARK_ALLOGRAFT_REJECTION,-0.07715319893555522,0.03413281932776331,0.047519314030997836,0.09179496084659379,-0.3363990486787979,-0.007065768960966567,-0.261905772779951,0.4080287120151469,0.24154404306608998,-0.24114449980486616,0.022668320311598322,0.3434196329110127,0.09524397103826762,0.15342543642123693,0.07388751321120338,-0.1879465494439188,-0.041634031331471776,-0.01888866551248591,-0.28681646726774035,-0.032336918510727626,0.148575586339522,0.01043547741877597,0.07420701983333843,0.08413943190914089,0.03960080471914282,0.02740495184562151
HALLMARK_ANDROGEN_RESPONSE,0.07705748578608665,0.07440067844106554,0.15193127109159144,0.07714594537379742,0.047153502261669464,0.016286388672713623,-0.09759547189990848,0.2920722440438242,0.2666542705673341,-0.04200563884748709,0.02986252055098724,0.2298160392608885,0.063194679926114,0.1779590621116344,0.08959948369776684,-0.049083228749765166,-0.025761691729166824,0.0876661725852097,-0.09276895070545,-0.005296033753431079,0.08115936077133375,0.054687338054542164,0.06188425602988457,0.08557099386355312,0.2263200060165431,0.15638835079347463
HALLMARK_ANGIOGENESIS,-0.017952455275672925,0.06504661682743312,0.10646513934865688,-0.02014720100382174,-0.14079904802806018,-0.06571367229792376,0.24913916760815963,0.47801039907572856,0.2920675417690239,0.37340829148662324,0.11166338931382333,0.37195479124019193,-0.08392851686883555,0.41152343445837974,0.15576802308044177,0.35998264827058457,0.09371771292949906,-0.0019177644219434277,0.10297120179006593,0.08187924447593797,0.09473495322070577,0.001679512076187508,0.06958534581426298,-0.04478423848660311,0.3701561070821345,0.09862864106387306
HALLMARK_APICAL_JUNCTION,0.08655576023861096,0.05653025193204294,0.11422129922302378,0.11984364805577703,-0.16275738725994035,0.03411744022285536,-0.014223946922396433,0.4241805485484822,0.26092854693269324,0.23085048129640026,0.04763165912509846,0.04549035507133943,0.13999800007364627,0.3113445910629393,0.11746182773969822,-0.1274195436705456,0.047396739071606506,0.03761781967301525,-0.11051893656214856,-0.019123628248323785,0.14023959346886902,0.14328829236660043,0.09776245370726523,0.09827064429339685,0.19438992514009742,0.09255261892215992
HALLMARK_APICAL_SURFACE,0.10532305274641865,0.058863828321702935,0.07168845790489047,-0.02532375812652841,-0.1877250526315384,0.008250067083077007,-0.08564922433931241,-0.24371185961855266,-0.16053481279399034,-0.2104778542037263,-0.045694328240764415,-0.1567531994396971,0.10938610962528364,0.19075545068187247,0.04724589107585234,-0.3014759613252081,-0.06043039371970108,0.027434046946811768,-0.06456040588289248,-0.08368673534966939,0.17224980843617338,-0.006511270956296631,0.03487851188747906,0.10062539829982002,0.018084239746466016,0.06139601005925476
HALLMARK_APOPTOSIS,0.025642857268942682,0.028822177102897913,0.11488993517099573,0.031453914525511315,0.06576366175971027,-0.013573498289010293,0.12250910066309156,-0.09845839418026026,0.017772110629194978,0.19386675882132332,0.06470270652432814,0.08288656957303331,0.033447057622684045,-0.221854414679342,-0.02460579527153837,0.0712261308930954,0.0035829967802072484,0.08749451795056727,0.13676971416739084,0.16442937592396845,0.10507059164185206,-0.056969753305949056,0.06339570362998657,0.09273827768585083,-0.04450870807515126,-0.04706928650614494
HALLMARK_BILE_ACID_METABOLISM,-0.024265641011395275,0.04027621589037864,-0.03137731788215028,0.051120917618654754,-0.25487967805948036,0.04502478101814163,-0.07283807169474418,0.24250185888205533,0.3171654242424154,0.08419213009172473,0.03764981569980155,0.17580258083998035,0.03167053955024567,0.13098943851910239,0.09445203272295086,-0.3395348912734055,-0.06168609466879302,0.017887903762589166,-0.10507442834564609,-0.12678926776583396,0.09147157945518833,0.00680043978918547,0.09152641647387248,0.06360578636615796,0.10107296071414022,0.13719838199626647
HALLMARK_CHOLESTEROL_HOMEOSTASIS,0.12134371305103052,0.05035348109310795,-0.03338433474196887,0.08959422946825908,-0.2921458280153548,-0.019555496220777437,-0.06681520650136416,0.3333676420534525,0.23009074925123812,0.3594864900008299,0.06620639559272033,0.321009237908358,0.11965312570749126,0.3606945279217914,0.17301277746756627,0.07187837672588705,-0.08111080462806727,0.01609977489026834,-0.16167518621044852,-0.12570260062483374,0.08331872668382627,0.08839749149216626,0.1161705006792521,0.048747371029782716,0.05066754155222825,0.1942734140753235
HALLMARK_COAGULATION,-0.05708721079548316,0.03165199397765062,0.18548167829647763,0.0925543795364436,-0.2996081170427552,-0.01463285286957996,-0.08767614968828909,0.41856889034328226,0.28841555030890376,0.04918526131400226,0.0962502386603102,0.3807475746730213,0.08814925631781377,0.2024483308512383,0.07728368909466002,-0.26022471038271466,0.060116778617854465,0.02972486151501084,-0.12700424945706826,0.05598416994453643,0.17065963052808308,-0.028984333846301953,0.07313649884213096,0.09367387130495337,0.1108819900784629,0.26761830742745335
HALLMARK_COMPLEMENT,0.002227104141002704,0.026351515176597874,0.07430572955377841,0.05076599265818282,-0.1467517074682987,-0.02742486034000589,-0.1471228914123477,0.06861403049051022,0.22125801988217472,0.26176471139205687,0.041951736453746134,0.3009529612126605,0.13113634322772225,-0.029976911149438908,0.15335882059210576,0.09481724507161335,-0.08905153407984975,0.01960602670264067,-0.1092671905506206,-0.007954089976521634,0.1351875471215522,-0.03678384159539305,-0.04458093758005599,0.053550095993781445,0.0644240833465693,-0.010440581689709542
HALLMARK_DNA_REPAIR,0.10905888463973779,0.0778065234948743,0.06659557129308953,0.13366351591698583,-0.11874060043912996,0.008955578800562199,-0.13565977084596006,0.3437626956546124,0.17814519678085058,0.00686205187697948,0.03647748963978449,-0.0850090295185982,0.14093628715231366,0.2674695202471221,0.13909538927457113,-0.22125086436411506,-0.0532354937779168,0.07144050678622006,-0.17127679899974824,-0.10292432347502142,0.11019385782117007,0.12562215465868118,0.05978770988404912,0.05985634663454705,0.20731248621088524,0.06109696783852619
HALLMARK_E2F_TARGETS,0.1064343977884733,0.08151383614805253,-0.021447299715073583,0.10880124464160199,-0.26921210070498697,0.027965822777423488,-0.16208299047528707,0.4575446251815684,0.2544091701677061,0.07153169387066316,-0.019668454223154427,-0.23714951777831916,0.10027185624387965,0.22176540078253126,0.09111556955769316,-0.22170457761685947,-0.07099230421242854,0.02580441841037002,-0.05384880325145662,-0.05453942027944878,0.10072433738751926,0.16946116861539526,-0.053265629537308984,0.03735826195837154,0.14384916143594484,0.029994778052208168
HALLMARK_EPITHELIAL_MESENCHYMAL_TRANSITION,0.10910771216277465,0.04538955033011511,0.2077116569990895,0.02800564703479885,0.15793158807302302,0.029476347455829957,0.23168578265303433,0.4809995332517087,0.25022948744216655,0.43586515051707203,0.07629260371069399,0.2986860712762487,-0.05263831483332468,0.4543447266390691,0.06851814069178681,0.09405031918776705,0.1309436200814682,0.10402783390881769,0.32993698278863953,0.2578658556334974,0.2008525559214388,0.036008869191003864,0.03064109197519626,0.05173917832936855,0.3530475066054956,0.13318604593644726
HALLMARK_ESTROGEN_RESPONSE_EARLY,0.014943542784896863,0.01079290345861816,0.09400523262288824,0.036485561560414895,0.07719725091862217,-0.013500383296482985,-0.08778816712505966,-0.12174448361212836,0.15980819915164488,-0.00418726474092948,0.06178344126496233,-0.19574942332809803,-0.1350520080169849,-0.3090229250632914,-0.0044632539458106316,0.03301737487613489,0.11677297376768815,0.07800048737750566,0.03780990887170664,0.037859540222709806,0.10348643766606985,0.025553187856029815,-0.006406998919645413,0.005879124766802768,0.15403199484779287,-0.09450794772637226
HALLMARK_ESTROGEN_RESPONSE_LATE,0.03153069165846538,-0.012527208703155015,0.017895505174308116,-0.02712807162341059,-0.27535110094651444,0.06317414605948664,-0.11971861886550636,0.06201995366133898,-0.1554308083450768,-0.09083127647623955,0.04560776123011146,0.06242812756196469,0.13157888304813406,0.2831422645035227,0.06333252972682327,-0.14965046384833092,-0.011699641204535285,-0.03757663786456418,-0.2003176239323444,-0.11195375364577309,0.1179573120276784,0.01167517687751492,-0.0332111497907384,0.01000537086150835,-0.07199809228962793,0.046963342511028426
HALLMARK_FATTY_ACID_METABOLISM,-0.012263581255806537,-0.04193042577232795,0.03469967944821709,0.0027369518006224057,0.2664837519896624,0.02169643858841458,-0.022129221474204968,-0.05116002635303046,0.23680768599708235,0.2522240524439512,0.005743969374928533,0.006036110689524851,-0.15881860556606672,-0.2014733304960709,0.12309880194293663,0.1679653638290336,0.08783603196091415,0.08757523473872161,0.25316815536670245,0.045541935374226586,0.005237178146288078,0.07816211098543481,-0.03576206897022986,0.002078707027163683,0.16984524617466193,0.11281883159747154
HALLMARK_G2M_CHECKPOINT,0.12916944765466856,0.07360639407647905,0.035039968049264736,0.10050564447479819,-0.09846198920134851,0.07950549453249225,0.11488513949750036,0.48717423071447113,0.25026920495870303,0.1929052511404078,0.04803533777243436,0.022151460516068772,0.1222515265397793,0.3861926310579735,0.10939625857578487,-0.132853970580843,-0.1077469814797024,0.07612297692110488,0.0013833991629668453,0.006334022023189366,0.10525987845423698,0.13996249875557784,0.032062099074289786,0.054955308355173045,0.289938999115107,0.23359339201709542
HALLMARK_GLYCOLYSIS,0.08300389378983421,0.034147502476180445,0.05781751066477355,0.0768995644559398,0.006561640563473949,0.025672932779217075,0.15694727288884575,0.021258590451505428,0.1555914964035819,0.17601340098656817,0.01943929833480659,-0.2596280365668231,0.006647049732140476,0.11668757547082312,0.18611292507644964,0.08554977427671798,0.11500083794608233,0.11261362271697584,0.10073755381234877,-0.0021041121122702903,0.10610221254779169,0.18687462214733272,-0.02045425313295068,0.05844052144215823,0.18393827391876139,0.13059538265029927
HALLMARK_HEDGEHOG_SIGNALING,0.10597252203508913,-0.0017398898962312785,0.017241561345283738,-0.004854669480749713,-0.052552445016062335,0.05315399511104098,-0.17598326443811282,-0.4155596033091446,-0.2935138444293837,-0.18002627066853116,-0.03884264759146608,-0.35243405546771506,0.02518851223547664,-0.28471881752525874,-0.0906141165715917,0.24611045492809913,-0.05194035064112716,0.07154299831003985,0.02541525190179471,-0.009989686669437281,0.05889726839800594,0.10314361874549048,-0.11974380395162218,0.021723295597625765,-0.1296816269296076,-0.03474252412704861
HALLMARK_HEME_METABOLISM,0.025236461185406456,0.09641051902145868,0.12373743160956328,0.10020065155142265,-0.0366542348784836,0.0190023404128529,-0.15752910748621501,0.06956936529795778,0.20086913987408528,-0.0009475026077961492,0.057235910526292795,-0.03182254438514311,0.06764990009758529,0.12640917368787855,0.11592774473813694,-0.11684452140638828,0.07464655295718406,0.04429269752836226,-0.13730690643220786,-0.05657492635381917,0.09840852084907012,0.047172895006134336,0.03782695252991398,0.059059788323234004,0.09611252052095193,0.022937066402413147
HALLMARK_HYPOXIA,0.025097138285355966,0.03522522526594061,-0.004587748057607368,-0.0912137194244679,0.3353007567476,-0.0079598331768884,0.243394449522247,-0.03263010591379863,-0.22422697052751733,0.31846619119518554,-0.029376217013019512,0.020649005850110758,-0.1688438409241036,0.3523721142025234,0.13140495192727408,0.51377304040428,0.1452067175458901,0.14523949413441836,0.3471889584965791,0.10720526239715954,0.0956980324505366,0.10631598844442823,0.03944467463726089,-0.04505822145000027,0.33264081011542035,-0.07984215352031998
HALLMARK_IL2_STAT5_SIGNALING,-0.010468662539287448,-0.007626824460082604,0.13299317921752268,0.03018698762329248,-0.0793205191303176,-0.03241821102866246,-0.026396946538722543,0.16362526095404284,0.26753603639673273,0.151350087414163,0.0006301247189079785,0.19527823464612643,-0.021470692408748427,-0.00614007803479662,0.05867784209472642,0.1339442412184269,0.04674487399716741,0.04205931680585274,-0.10292973224007392,-0.07631356744194476,0.07674684465684845,0.08099095454290971,0.0830150846369902,0.0248775948367369,0.20469479969216495,0.21730095631117227
HALLMARK_IL6_JAK_STAT3_SIGNALING,-0.057675924401592644,-0.009517725782905353,0.19500470069755038,0.016891911353993247,-0.14249105365438847,0.020526630021410648,0.18144525592322544,0.3737650939333495,0.3391558331480037,0.21985152768406777,0.07790212262058205,0.34836815716697594,0.02259364905790039,0.37002185514028985,0.07304820429644598,0.16602516317872174,0.04259634416723303,0.08280523685728101,-0.026469213579241938,0.030189579495430278,0.1734622366064719,0.1531913595553023,0.0398785090439104,0.07183105886105347,0.25289688618220074,0.16874673518876487
HALLMARK_INFLAMMATORY_RESPONSE,0.07650612637217208,0.0658337305448245,0.13279250201659043,0.022134378060733585,0.18684118234062927,0.0367285954039347,0.1884661934214685,-0.24402963304827927,0.16563025378976862,0.3516538670724311,0.014942389835452442,-0.09008916369368071,0.06185307368413327,0.04537530543374205,0.14404126799013434,0.06748061825600363,0.013028437334397347,0.0007332213893522196,0.22842653480128056,0.17656347953200588,0.11414733285332838,0.034293814505589174,0.0030618507624971428,0.08022646978313284,0.21675776532780233,0.13377947300970688
HALLMARK_INTERFERON_ALPHA_RESPONSE,0.04376839870894846,0.0475134313878159,0.04285119663000675,0.06630583098767719,-0.26797176403960976,0.006351921179407375,-0.18551577674110023,0.45172198781253786,0.303746098141087,-0.22945947328161911,0.051383965129424815,0.3569146948043164,0.1442605213593472,0.2319801032869567,0.09803713157224202,-0.33701421804886333,-0.022260447527163243,-0.062393622563309555,-0.2627164286905525,-0.10638297746167152,-0.03353547462770597,-0.011098473185956928,0.07481815929611392,0.0901349444959133,0.033014561844193074,0.27350091966499435
HALLMARK_INTERFERON_GAMMA_RESPONSE,-0.015872229737535753,0.06299515184776955,0.13528731835580463,0.002828267986690356,0.012261158922139288,-0.04113070726218156,0.22924024764558393,0.07856994833516281,0.239121388142665,0.010618491657247138,0.08280202595706085,0.2728859689741291,0.15591368330560473,0.3875354261924481,0.14893735439513692,0.012725793040352056,-0.005354257184084765,0.08425732394700204,0.1373589840180343,0.09061575317023231,0.12890751641788734,-0.009263764047706366,0.04930183731470358,0.09948772642342006,0.2923639305400299,-0.1419517650004932
HALLMARK_KRAS_SIGNALING_DN,0.013592880757019645,0.06917195065657945,-0.026707408977174833,0.120761290982132,-0.037579017530115374,0.047254780394957174,-0.1601520020001189,-0.15046428203714005,-0.04639710599608603,0.09080940299679488,0.03085979230836159,-0.26180836842495164,0.10538686493480172,0.05876806333740817,0.1403876995196054,-0.20593966238912026,-0.029178631884210916,0.022388555501569846,-0.11379898469408951,-0.09109926327397327,0.13573733576178276,0.040568314184800926,0.010932176662880355,0.04014609355041178,-0.0632319379731159,0.1208962041090659
HALLMARK_KRAS_SIGNALING_UP,0.050956439094761746,0.03625771973201713,0.1429547062015752,0.08060329589575933,-0.05226427834752328,-0.027894489974213572,-0.13050197326161078,-0.3904358820628078,-0.16443505120488258,-0.22342020844185936,-0.01958934355017666,-0.20302361989243886,0.13336347131736556,-0.2897213638476737,0.13208601109425872,0.22919556812054664,0.02442182310472132,0.04127453174825546,-0.2001702283227111,-0.09178030286562237,0.1639733537824088,0.05959359661720155,-0.03308523742586167,0.08258580414981335,0.071601219510978,-0.07214557206320805
HALLMARK_MITOTIC_SPINDLE,0.09035588549416765,0.06321195152796105,0.13843118129628632,0.11115679402497416,-0.12239388650274312,0.08892591790001397,-0.12401446533954855,0.3271985521191917,0.25558303534589577,0.18097571635663065,0.07307528792008657,-0.05985915255158828,0.1325817435599044,0.1180009596409597,0.1689254426723115,0.055099108762289906,0.019391461681935507,0.04908677496639818,-0.04314187170288453,0.0039047586861221135,0.10808434090775165,0.13680996738945622,0.15915360904670509,0.08816612301752916,0.17253004592281948,0.19734580774390598
HALLMARK_MTORC1_SIGNALING,0.10100859945171177,0.06359245474243462,-0.00112100922029559,0.057435093327637916,0.3992937024673555,-0.017759906895165805,0.2789017363391732,0.2988549995203451,0.16565268374900113,0.3336166979539315,0.012375628184263467,-0.13090290806303817,-0.01935348533017427,0.3876451928992809,0.08733284114141923,0.3811460655317946,0.21195245834006798,0.14484036088233884,0.27937179028429326,0.09801503556004133,0.050785129316676426,0.1366793115587107,0.062117419639882356,-0.011958514594123969,0.311676950102062,0.10070722538093804
HALLMARK_MYC_TARGETS_V1,0.11238804699764227,0.06848576675083481,0.011304699907651072,0.12629686338554594,-0.1634971625200035,-0.02112678367913191,-0.17901200312819457,0.4503191946666654,0.19298823336341517,-0.07530081444580945,0.09370495395685495,-0.0921056538635818,0.08419893025177543,0.3454391335484384,0.17257999968434234,-0.24762472395224858,-0.0455565538186494,0.07116278048490206,-0.2596828315017299,-0.152300436830236,0.11835042401368738,0.15309696366766304,0.12656892807707595,0.007427500467708558,0.25211350148486134,0.07882958111948667
HALLMARK_MYC_TARGETS_V2,0.07916728128992434,0.027165170233455566,0.009279636869200192,-0.03339593547031591,-0.15529488769416305,-0.013749043267682828,0.1354960569864825,0.32379657159105646,0.10421617885549879,-0.04917973798856924,0.02852621077278148,-0.08495094840120873,0.10407784281453658,0.2558777325401976,0.028949792182932612,0.0900330681676172,-0.0168094280900561,0.05319194198298306,-0.013240058233741529,-0.01496869589892143,0.08449205196428909,0.06308209205370398,-0.028431396172732205,0.05850459678786215,0.21819991111261508,0.045543789151565615
HALLMARK_MYOGENESIS,0.07514839397696382,-0.0022167835152425556,0.14021738243756057,0.046731625009609756,-0.24328184859191054,0.005726830119233515,-0.19315141845349654,-0.2380446772868351,-0.0881155305268067,-0.14437712438798744,0.10546323753219256,-0.04561902942834244,0.04883828135911114,-0.27987691007078214,0.06258943958059544,-0.12364333563927789,0.08737614731401415,0.04460838406404893,-0.2227707490951482,-0.05107083799128033,0.149731487212659,-0.01272663335950387,0.056038979062803806,0.09178648177518779,-0.10845631991988747,0.08380862830630126
HALLMARK_NOTCH_SIGNALING,0.07656224335684417,0.02452110233403651,0.07343844600636038,0.07345761389017727,-0.2778796985469451,0.032271161943081356,-0.15750563714562832,0.08798294494553995,0.2051274308446642,-0.15830110202147774,0.05732698690546188,-0.021927090850808826,0.1239530145633395,0.16556992245612032,0.1638440615987125,-0.21594078370285696,-0.01697457850390253,0.003908876489260595,-0.24155705603101985,-0.12996784545481752,0.13221012003973506,0.13195805117327103,-0.011677861768093312,0.050756040516437714,0.10895870148908386,-0.046820682781536394
HALLMARK_OXIDATIVE_PHOSPHORYLATION,0.10236429510189458,0.005953790852305177,-0.07243074723469,0.08816053858983604,-0.27715081921384954,-0.06942616025901023,-0.292725205103139,-0.062370780364490334,-0.19716356439133143,-0.21498695980287538,-0.01766071214325167,-0.27876894507841316,0.1196318058453754,-0.08783733417423979,0.16130072146450253,-0.24361589434631414,-0.10660358474762303,0.031490387616560686,-0.27827479124014726,-0.17520757206585993,0.10454762432477706,0.00589028142545653,0.04763359615387441,0.0225228951873906,-0.08433520384261652,0.07409985006541792
HALLMARK_P53_PATHWAY,0.014658061242504539,0.04209239931804953,0.06646572973273512,0.12222946637738538,0.034121160885035966,0.02763917603232609,-0.1089439127399061,0.2820611693148469,0.19513537207822396,0.024715099032666756,0.015648931804224553,0.05409622068683143,0.014769821392008914,0.14831483719674235,0.1750705228334406,-0.023892560473655667,0.11360739727593278,0.07630546624723962,-0.1349316995923485,-0.10758032364269657,0.1437391660736374,0.05982016797677927,0.01110866777077623,0.06114963000933302,0.29644646392904866,-0.013221297656682658
HALLMARK_PANCREAS_BETA_CELLS,0.09914785149414918,0.041074025495127654,0.012138797499331699,0.10485288343747105,-0.2848583696033554,-0.03332394190709052,-0.3221831203426605,-0.34614652347638475,-0.2773613343700944,-0.2575203219026965,0.02436212598488272,-0.31688429614803054,0.09048527589110089,-0.19719919522976667,0.13606103051599747,-0.21917277087938666,-0.07489167432018914,-0.027291172076964083,-0.2953992749843723,-0.18131704244805422,0.04706839377779783,0.04609729280040938,-0.0639824354985018,-0.0032680363750529073,-0.27246108275933145,-0.06192930098062551
HALLMARK_PEROXISOME,0.02262175647882308,0.03968307739931431,0.06697224066960154,0.08199277152100348,-0.2874398538403673,-0.0347897975719137,-0.1663233338345618,0.1763465892668622,0.08782359935956634,-0.2126386017924607,0.017572732776928775,-0.025361380535480437,0.08599690019302897,0.01966991089081834,0.04749105155535818,-0.14404621087977107,0.038609344304962254,-0.03053894016275851,-0.24201103828634837,-0.10622585864552522,0.03403825566739058,0.026854027536020102,-0.00952357413481373,0.01850553485951469,0.09191966039348293,0.014147196702513111
HALLMARK_PI3K_AKT_MTOR_SIGNALING,0.07837629039279356,0.06965655153001599,0.08749214800105634,0.10215026076509466,0.006940224032165446,0.042354471282915175,-0.1519598166344942,-0.08804456635522032,0.013491330710332164,0.07883815054380659,-0.026699567672173373,-0.29449314213161837,0.12047910847683313,-0.14318504716981925,0.1649904854258637,-0.0023494146218302923,-0.07564637238365583,0.055022971575915965,-0.20741029015075815,-0.08928510079554072,0.12153389957801866,0.0390632028846181,-0.014982464450738952,0.09760140578674496,0.09478218858054421,-0.012841664265423327
HALLMARK_PROTEIN_SECRETION,0.10528933441033539,0.07117734407262631,0.09820670811069003,0.08480309856914395,-0.05986748471005252,0.01028711509321435,-0.13507440294305284,-0.06330554340970322,0.12126247752865786,0.06338725883688777,0.016878755299803174,-0.24373105808477255,0.09565042653096109,0.0997979775468975,0.1318221448725723,-0.10225864589340916,0.03168150395839903,0.08772782608301063,-0.11877418232059964,-0.09261970207899042,0.12386643383665666,0.09915690627612142,-0.008676346274733578,0.051522873660255465,0.14288243998252198,0.0970057040863161
HALLMARK_REACTIVE_OXYGEN_SPECIES_PATHWAY,-0.015582262585932946,-0.16920751360575462,0.08351893286320275,0.0030361932618963882,-0.21941932481762882,-0.11083059576893586,-0.19783766895406502,-0.04532933681514418,-0.15172152659277757,-0.28234795844416755,-0.011201766538251924,0.411836873716786,0.07396611077027913,-0.1901677481829326,0.03606816581198258,0.14575189148631568,-0.06638651598877902,-0.06884057821098438,-0.2419099549003699,-0.17469300654099296,-0.09273591320272476,-0.13981829911917165,0.08948933195940742,0.03454563150306126,-0.0606478352638759,0.15353112219255674
HALLMARK_SPERMATOGENESIS,0.011226985643656921,0.019701427754878813,0.0349095729612323,0.007583460727718479,-0.1985782320078096,-0.001701477605734483,-0.1286819845580282,-0.09476215848328941,0.02778291724573165,-0.17320667156415193,0.02501890999376328,-0.2735057282288607,0.11586311257159293,-0.24052085975430257,0.12836199373244953,-0.2415084545626682,0.06394739544081386,0.011382201981445954,-0.19677784452753333,-0.13182284272951472,-0.008086116530900404,0.06257068268337014,-0.05567858449179651,0.01762812816162994,-0.0415464412063433,0.18975789524303568
HALLMARK_TGF_BETA_SIGNALING,-0.028373151138404856,0.05989632900330721,0.17412166308924742,0.04670918235007261,-0.16673291853367134,-0.010153574676142934,-0.03760581710104899,0.38945474376792905,0.23354339317398223,-0.15557839885511252,0.09266414174433989,-0.03965783415013308,0.13290109772444067,0.30123742065025466,0.10813040056408087,-0.29295561113943924,-0.10981073698284606,-0.023072494015802487,-0.2044813305387289,-0.024233642183257343,0.04911692770723922,0.040915310121898564,0.05276314673693185,0.0776683612928999,0.19932396231783736,0.07669520634017025
HALLMARK_TNFA_SIGNALING_VIA_NFKB,0.02792601793568291,-0.08317503642689184,0.17813761988733473,0.13095778812589848,0.1215229571531434,0.011108326198610236,0.2842736335110703,0.22682218510489413,-0.26183552367856966,0.1971878094238377,-0.0060813606662934935,0.19699485312912043,0.04613665409663583,0.3310517390461385,0.062080522231339266,0.30757964379511055,-0.03989307181861163,0.08640567951119882,0.1512407767651646,0.07599002506771367,0.1339618209549993,0.05462617157904022,0.02616045890543456,-0.054486150871507856,0.306255668854491,0.08859824616941084
HALLMARK_UNFOLDED_PROTEIN_RESPONSE,0.1227037112696127,0.09095641516439043,0.12524462299667888,0.06328870561056368,0.25565682576798654,0.03215506565071689,0.25397151333697354,0.3564607341996738,0.16553345024633181,0.2131024328604378,0.04408330222539655,-0.1755507710329434,0.13272550447273151,0.33122024024478963,0.18405044258470568,-0.1431694589061603,0.07533611378294833,0.11220667118700271,-0.08635273133135266,-0.05939523805329995,0.10667992195730605,0.13104314446013385,0.021626078120877825,0.07752938694268947,0.3471314645182718,-0.005187542333293788
HALLMARK_UV_RESPONSE_DN,0.04112777930619554,0.023353046171543004,0.12019570578300755,-0.0014740320288967905,-0.19348362889146675,0.06791696211932605,-0.29907855343276024,-0.29339828888515124,-0.12167228450907183,-0.13361876231888611,0.07949236341739982,-0.32395620419806964,-0.06765889871028945,-0.2650059575652539,0.12409829832177358,-0.14099014850656322,-0.11524250602809893,-0.045899828646713874,-0.1305684053966382,0.006408198873297959,0.07615227800352495,-0.08714391623853339,-0.03874522179151828,-0.01712239923663563,0.08582535079144683,-0.06853789273047042
HALLMARK_UV_RESPONSE_UP,0.09206139265714253,0.050538796017419535,0.06450717649754192,0.07286480947289554,0.0913264104578153,0.010989041824078961,-0.0793234468790337,-0.08324823629954424,-0.27572348296422716,-0.13629748336763592,-0.019981091084726874,-0.2680711014973011,0.10642555949208513,-0.17855149001169737,0.16950892710675955,0.2414059233230375,0.008933193609703013,0.05587052095519456,0.08836872680003648,-0.0085754182604307,0.10740511620493416,0.07795433738697773,-0.042527074879407586,0.044322428138408775,0.1353217984696575,0.06126181908149476
HALLMARK_WNT_BETA_CATENIN_SIGNALING,0.06946952064141362,0.13715433735276528,0.12721656349808783,0.030421206162954895,0.09713908527057316,0.11274663622900205,0.0809727996086795,0.4169253852908514,0.31600206350816756,0.21966176388697833,0.03239832388270818,-0.13304076381014657,-0.004302421948940671,0.41712990631007785,-0.030860535741176188,0.010809194602961111,0.04367866401619898,0.06708611968580029,-0.03453853649471542,-0.01266965846775681,0.12445846743865294,0.12689032614642853,0.015568539734348548,0.13419293555015585,0.20223583488360042,0.232178469310525
HALLMARK_XENOBIOTIC_METABOLISM,0.07620513128903435,0.06713277273938065,0.09268891940658233,0.03132451676638384,0.017587328596057595,-0.012620812784028436,-0.13911260441524448,0.11197617958959223,0.06279996653061697,0.15362261695972762,-0.013182889756620023,0.23267021233168733,0.09506236071523716,-0.019270492761790714,0.17935819256257599,-0.1788051495146816,-0.025324884677254786,0.0896105598144297,-0.08940194195273013,-0.0274055233845786,0.05652029028534571,-0.0062226704008964285,0.10953097302922839,0.07531717039286662,0.132984825919589,0.15415766733909855
