,MGH258,UKF243,UKF248,UKF251,UKF255,UKF259,UKF260,UKF266,UKF269,UKF275,UKF296,UKF304,UKF313,UKF334,ZH1007inf,ZH1007nec,ZH1019T1,ZH1019inf,ZH8811Abulk,ZH8811Bbulk,ZH8812bulk,ZH881T1,ZH881inf,ZH916T1,ZH916bulk,ZH916inf
HALLMARK_ADIPOGENESIS,0.0024291794775688448,0.07601490779066065,0.11903281786409445,0.06407622190165882,0.0638771784703748,0.028346923563356906,0.015179476239705624,0.060656023845018905,0.24528227158729135,0.07197634008764779,0.024655188475833038,0.11193878892401447,0.16387955493486545,0.11799572096436313,0.09448181180099602,0.018483344710702218,0.14128047863689874,0.10339888936328664,0.06385501340173332,0.14615294796657677,0.027047953404614817,-0.02518865295832831,0.02830474502674221,0.18022051351235194,0.14469605704000008,0.1985160813170215
HALLMARK_ALLOGRAFT_REJECTION,-0.0251908967683793,0.07916602896203888,0.02044070272399863,0.0419949288939601,-0.025366961279973052,-0.005676335368847001,0.00542887250156444,-0.07169894557852162,0.2344395954019906,0.012941711565724568,0.00038448408301195895,-0.2363643982083383,0.14140024514115385,0.03653667573576169,0.13756634273195598,0.021293590999676173,0.07321996762649408,0.03507860441233957,0.018707953869003265,0.04805487238938161,0.01775099812328739,0.023844902301672976,0.06349295084265162,0.14596885608169774,0.060731266515902306,-0.04237885297493829
HALLMARK_ANDROGEN_RESPONSE,0.09262221982503889,0.052796734373910685,0.11601366228124757,-0.017967312771285247,0.08204137797596045,0.005681343202633508,0.11030450664578252,-0.02786333440352142,0.2081513904146902,-0.03777553561436551,0.003120289697473406,-0.08695035507549105,0.1513639680430863,0.072197086943158,0.11399674026937345,-0.04293337344783592,0.12654448932738657,0.09807026334216117,0.04121721686948434,0.11801012411284306,0.05842109427381134,0.028943859866035287,0.05484762661062759,0.20395696205825273,0.153694225857365,0.02436579996319605
HALLMARK_ANGIOGENESIS,0.009686577455226794,-0.0724742711716067,-0.005798882023489352,0.05129604047581944,-0.04033593913649111,-0.0014847619757800846,-0.0464935717459548,-0.06725219480540273,0.2287679471042643,0.03700437212887553,0.03139611504247761,-0.19234434154679908,-0.028945831736016517,-0.02281344673741095,0.05795043570651615,0.07252254773302907,-0.04877436043848696,0.1715961594388659,0.03293628729712735,0.02154315104150486,-0.01507157380625173,0.09150055033952052,-0.008579587835557784,0.020883624998068315,-0.022144462262461,0.0046178753103883075
HALLMARK_APICAL_JUNCTION,0.035765658264636555,0.03421495698195226,0.14450465318925995,-0.00018420162810041426,0.09623894892929188,0.07352102966249269,0.05512697443476194,-0.04255325084795344,0.26894127252984357,0.06713111492003143,0.011895681445880412,0.008101059640062764,0.21220502975529337,0.10301904908116459,0.1247491266783055,-0.005643380918676836,0.0947775218330769,0.08353193272852424,0.052485456301262084,0.13167322482255134,0.006143904536798047,0.030627697400822895,0.06713204268053007,0.18179013973881258,0.1851977692954524,0.1530081936377878
HALLMARK_APICAL_SURFACE,0.027859831828285157,0.12020378291527781,0.14651621394382205,-0.07326287310815552,0.057121716292977145,0.05638777448316122,0.013015680401585147,0.08832848253746696,-0.08747514487470855,0.021777898955579893,0.022278951439880543,0.18076707579824855,0.15898672826913127,0.15542034723061712,0.1130229029976551,0.036939805151973294,-0.0053943287966809784,-0.022361254259493837,0.08904494950150753,0.12327781384352376,0.0058086027776508365,0.029194134317769748,-0.013187555109611483,0.14089030991359666,0.20481853694686664,0.02699728070478511
HALLMARK_APOPTOSIS,0.059958166568103585,0.028151428090024366,0.021752269389911007,-0.017667155334551238,0.08990996200776462,0.011273945046015008,-0.013103637962724582,0.043472212301573825,0.11955881132363731,-0.0065214771061192596,0.04169126210901214,-0.03923782482820742,-0.02870588215688336,0.01447176532221039,0.07182191605557885,0.0318919235090967,0.041031793045698046,0.015913371051999622,-0.1126042738454586,-0.015008435074180171,0.012978439166995393,-0.0005227378156270285,-0.02626127402046436,0.04817222702702221,0.10878754752913562,-0.033593965627187174
HALLMARK_BILE_ACID_METABOLISM,0.06353809421163993,0.028007710391532704,0.050568261180744305,-0.0363016173655422,0.05176930557806564,0.022158722359354604,0.03899185791269589,-0.0037433259783474465,0.21588567764974656,0.049584540844577314,0.0869994547805806,-0.031765680966052236,0.055449986096102584,0.052494822156181856,0.0745529338722774,-0.004441976008583317,0.0642218324710432,0.03785135137624957,0.029222234544722198,0.08927518963433544,0.02493678369249123,-0.018191978240725718,0.0037875114216185907,0.13251657832493977,0.045825962818356374,0.08638288375388602
HALLMARK_CHOLESTEROL_HOMEOSTASIS,0.07508372317775128,0.03289478117718979,0.04297579428330873,0.02997218543716765,0.08496940681399878,0.048221740138101196,0.02816611430340797,-0.08100831128274916,0.1324002359943675,0.054479793133142496,-0.0441683390580947,-0.1296990331730186,0.1711932700616368,0.07120553718027521,0.10804290543494642,-0.06492308205522741,0.043206214170933004,0.02576285047224066,0.05180356889970247,0.12153610519490778,0.021284376454574268,-0.07611895212115416,0.052604783788181286,0.18803383039919142,0.05894586162787482,0.11939706104511649
HALLMARK_COAGULATION,-0.04041292722591516,0.02740951429367254,0.08949123721673725,0.07445303133430377,0.0724778657775562,0.020581117436995453,0.0834590678032014,-0.08184818084345538,0.19213640687765157,0.08231641989719751,0.042406375909186965,-0.23894145671528555,0.12705595917757675,0.016789390421373562,0.05588563477804288,0.02948309155607753,0.057060083267263494,0.05396852581302767,0.0008456876092291064,0.11208074465027747,0.013786720919875884,-0.03460515120084074,0.025478471488712646,0.09896566467592187,0.13719041946932486,0.039973096706801166
HALLMARK_COMPLEMENT,-0.011374177810418145,0.11245011363600167,0.07387974758799068,0.037915500577874406,0.01158598429167369,-0.08233970778463058,0.05514030276046581,0.026574865208646874,0.27333609313564056,0.07616829515273868,0.007424448866973143,-0.16398115549300205,0.11630412397901757,0.0841588005847329,0.07393651095319792,0.05072837841409197,0.10561968225716085,0.016553268217798817,0.0021843614714737937,0.10101274324019079,0.016785263269436832,-0.00588298945527968,0.11302480978104827,0.21612793116566784,0.1527527087058919,0.1541354622342794
HALLMARK_DNA_REPAIR,0.08078384158601555,0.05110141082357703,0.10678916879097484,0.04379997440222036,0.09908336461400487,0.04744484395468082,0.07258643229400501,-0.01432378559932313,0.26719027450663274,0.03700594678070345,0.009596115989706255,0.08803412598350815,0.19397144587397253,0.15750279399351033,0.12741453266080374,0.017131040542514894,0.10817802047771237,0.11698025607904165,0.043890933236162055,0.12408638195497027,0.03387956621142151,-0.039699667561856083,0.07627470271070086,0.20044263280558333,0.06531334284650436,0.14947852919705135
HALLMARK_E2F_TARGETS,0.042311325934683265,0.06614618473468316,0.12458003822590859,0.049189583634006724,-0.0005940664919805977,0.0435654735438767,0.04787374116438204,-0.06765787669335455,0.25854601815305933,0.03945166890094267,0.014578926374002283,0.17335446607407495,0.1630128802581931,0.06368466488000361,0.11565058062002492,-0.008442112437839289,0.054041637269696366,0.023195923498062803,0.10618217981315331,0.08106002773302087,0.02846786160629213,-0.011039467430562073,0.04949975511686665,0.10840329580954611,0.022348152132496153,0.08996121673379422
HALLMARK_EPITHELIAL_MESENCHYMAL_TRANSITION,0.06316224033588617,-0.10458174359318759,0.054704361718008146,0.005984205126626682,0.09030936723134743,0.014374594861852682,-0.05382008767174443,-0.07304246284452928,0.24744076347051405,0.041050010390259316,0.02752900049156848,-0.20001044669101534,0.00890652606600621,0.08780447761314082,0.12282507124653108,-0.044486476563281765,0.014552595080447884,0.1129962418612589,-0.03878789600571335,-0.029195766624006764,0.05029373788796126,0.08210964054379054,0.022650221757255565,0.11236842119222559,0.0767775443298358,0.17101436258115638
HALLMARK_ESTROGEN_RESPONSE_EARLY,0.03359892171084846,0.012121480691919794,0.1144099270819826,0.016656819689339086,0.06170844458315442,0.0015883158910503172,0.13014303375975064,0.06932171231109703,0.22636531638608365,0.05691202324738197,0.06351832621557524,0.15339556150131972,-0.1215525665055915,0.08147508740674156,0.13704763162314956,0.007968841984691714,0.028206364694357732,0.11081849399160647,0.005443780986384884,0.11126307881845623,0.05000881362706937,0.019488523971608288,0.0012920141337978029,0.17775589336953046,0.04499132391342763,0.15694221308488018
HALLMARK_ESTROGEN_RESPONSE_LATE,-0.04612550208301753,0.12192567097875606,0.11560377881063637,0.015048703123478406,0.07520571590377986,0.03886657057387883,0.04848932036525909,0.012310388876763464,0.0029951539281803234,-0.009533506391355525,-0.005111058633847269,-0.05659802364170221,0.16661474928726835,0.07707231110711464,0.006660914939546471,0.04617535653526642,0.04015777234929519,0.025146367234406355,0.09483565366278227,0.12636504270827215,0.015742398999840108,0.021165544762417936,-0.0013826518103396896,0.16957041950611706,0.17206259113792804,0.02857833134248297
HALLMARK_FATTY_ACID_METABOLISM,0.005200153790958442,-0.10746308230867965,-0.03743206512926762,0.010733299797097702,0.027957448896437108,-0.02014705769245335,0.08998485312760017,0.018889345790136583,0.124382418588397,0.0036374512528921095,0.05312228435893343,0.04780236736961294,-0.14203316873626307,0.07536246537737047,0.10177815263487124,-0.001355424663746295,0.04247549509553923,0.04408619467471083,-0.10682051832914267,-0.018902684412911274,0.043126586629999936,0.03106463637898093,0.015785603164541917,0.15634761756633492,0.0033639460964304084,-0.004986072155663005
HALLMARK_G2M_CHECKPOINT,0.008071242531968389,0.08715601172283062,0.12217121120063303,0.010058269647652617,0.0921486592364757,0.03360594643842699,-0.02395055164748334,-0.058535318239940105,0.23842064440000313,0.022395773202748277,0.011509057311518077,0.0013251276122185416,0.15829416007434868,0.07250795496233588,0.08282098458270706,0.010254259044348025,0.053486852584333666,0.0996322856807329,0.049845651928006086,0.11606168759357494,0.008793232499730514,-0.021292187048498935,-0.01941608178200988,0.1666493533596946,-0.007860682136360993,0.1359990144572116
HALLMARK_GLYCOLYSIS,0.04850398463192314,0.05081574489549393,0.07330914222649579,0.04889497572252881,0.17567967604362145,-0.012400283603327723,0.09209873799047538,0.06178941496070926,0.25219490107676856,0.047229544461337515,-0.007904181592637425,0.19327484532286704,0.032998194770278336,0.16566362472925433,0.1100352839930704,0.02137101741324007,0.008923449327153367,0.08991519381054651,0.051462079282102426,0.13479972508180743,-0.020241663782275345,0.008974581547450781,0.04257016450438986,0.21709674274752094,0.17077939363476777,0.08445991478575131
HALLMARK_HEDGEHOG_SIGNALING,0.04946777395424966,0.14453954882166675,0.10079665777234284,0.022804363042668693,0.11754893623990456,0.07059381583223656,0.11556712479790283,0.09041443418870239,-0.05052706482306174,0.0022874703656764017,0.004197302840079469,0.2816097027719912,0.04450869629187245,0.1470779857992458,-0.039880259821578286,0.010060428262511897,-0.04308972379126111,0.07362896986672847,0.035859156955361605,0.18190941224458776,0.030138784184620508,-0.015323845185202814,0.09285024258955672,0.1978258653072929,0.3556060427825276,0.07083248378738326
HALLMARK_HEME_METABOLISM,0.010168211912657639,0.07692471453392685,0.1455080919692937,0.051233458410039324,0.1416718207692226,0.034906846501801245,0.1059028604448043,0.023629146470895444,0.24876412039014775,0.06527672270067741,-0.024051163768848343,0.06054231593144209,0.1296195942480447,0.17339071927332073,0.1389458376482192,0.0003358062698246376,0.1336872644927122,0.11097759859750507,0.055821160390444685,0.1221281794002654,0.03305771793055096,-0.042827024183656616,0.11853456756030228,0.20844926041262554,0.17949914202256234,0.12672707687172038
HALLMARK_HYPOXIA,0.052211343928694004,-0.12014356744971481,-0.0806196272373006,-0.01642984111259179,0.05001893230114136,0.01977445771314584,-0.015974322594863092,0.03197343491595303,-0.04367113120242948,0.04093583392969706,0.04472316926870468,0.017387605058834955,-0.16394943848527277,0.033210732981939314,0.11154671330480241,0.024318699645758144,-0.10743889815366056,0.14413144434853217,-0.09895121093787315,-0.06581614901708127,0.05241820883280376,0.07891574113192312,0.007487125736825907,0.14692035227744252,-0.1797554493997369,0.0686380789796501
HALLMARK_IL2_STAT5_SIGNALING,0.0710680167767606,0.029140636137388782,0.0993423339959807,0.028399985138335207,0.0739208524455476,0.026838193802709236,0.04366585662997422,0.03504751709605515,0.2365593537639111,0.0585474823018848,0.019678325610083848,-0.0504491983279259,-0.017540670072869146,0.07021110255770417,0.080655425528951,0.04398568644567974,0.08281894426499094,0.047378045746251596,0.08482361825893871,0.09447281704358788,-0.0010298576504942972,-0.018114692351093368,0.042273424768025446,0.21991556862395445,0.10680611817490826,0.04643228268474108
HALLMARK_IL6_JAK_STAT3_SIGNALING,0.05928339200806077,-0.059998540236759525,0.05504747961746268,0.03533388776231739,0.07386689927641304,-0.01739689636133943,-0.05349426023620142,-0.11664332553042023,0.20248815067594847,0.04250005004423425,0.0227391963559144,-0.214032450182793,0.0558461375029868,-0.03782818887132338,0.038389116144047004,0.027136958971970635,0.05914606319167142,0.03635823496878028,0.09872046650067212,0.1458123149131815,0.036381677466393494,0.09117302278192577,0.01513934441263102,0.17010965367833888,0.039015281065230306,-0.04069759449677179
HALLMARK_INFLAMMATORY_RESPONSE,0.0805444321844812,-0.05688329871365584,0.0608764080679664,0.005755632583687358,0.09885817333091688,0.0038023812487454774,0.06812838531290105,0.0592930590795148,0.12741166451853309,-0.02619709168910776,0.025401307165089457,0.08915736076638302,-0.00013118857300601784,0.06382776566455375,0.058773943434706086,0.06740290881218552,0.11104745837653986,0.035808169463568434,-0.10686879040616507,-0.05196375670159656,0.016936708254859118,-0.008204304301907812,-0.031328370686399515,0.07874813930081306,0.0004390691579034269,0.016821331484996142
HALLMARK_INTERFERON_ALPHA_RESPONSE,0.024630261882261705,0.14364123345689053,0.1228633585356717,0.029175699656279783,0.034719964765550095,0.03528944764529208,0.06912541381873966,-0.11632230943713305,0.21583635621224295,-0.0060423679200713315,-0.03220501495355767,-0.22160985341320996,0.21608355455674486,0.11305329713833265,0.09186652523842229,-0.0421104098136318,0.10759978400967642,-0.028101488688968865,0.0693354292259273,0.11157863090867405,0.01249645558091956,-0.02251085421616559,0.07633089993449026,0.125463597802801,0.15240803395804084,0.015271763218563657
HALLMARK_INTERFERON_GAMMA_RESPONSE,0.040206693610887335,-0.05075647250440228,0.03755697811215213,0.06420282188168525,0.037398700864500097,-0.0040376265168936415,-0.03676881255343887,0.017037152075926074,0.22859593916114176,0.012217576851937313,0.01813473106970695,-0.18535975483584677,0.06037447742745272,-0.006463620947150829,0.18737534961815264,-0.02735834471798474,0.07449652510280848,0.03673812032640577,0.028754160520593906,-0.0026199373415377483,0.0011488486577999365,0.044963761262221784,0.019817826991156494,0.1346129243520482,-0.053927568673754915,0.01142114949247838
HALLMARK_KRAS_SIGNALING_DN,0.006771120758433826,0.04740105207195559,0.1342310461963428,0.05684216620080637,0.1351801872849233,0.0528442721350767,0.1023187891664763,0.08643637918017345,0.0008532207939220998,0.08492505990980766,-0.050110134267885895,0.21902682434317317,0.07830622277933531,0.1284732673486742,0.11360893455725016,0.013478669929411385,0.06842304722222439,0.062651046065731,0.11215784957940958,0.1166852923779161,-0.017063293428686708,0.03257599449790031,0.05632599329886225,0.1741437539777184,0.22023025033676205,0.15006595049584914
HALLMARK_KRAS_SIGNALING_UP,-0.012512833131016442,0.10180311114696423,0.09878692362495857,0.05643298891737174,0.010703254569340324,0.0005961813629817741,0.08482138128883095,0.12656010475325746,0.10533179114878038,0.03350702642734532,0.038986685414368935,0.23281915035742365,0.11542718819190474,0.11799604345114048,0.07651095344304096,0.06821461183458746,0.09598510916282069,0.12612277339300895,0.08213666239841315,0.1625776842047382,-0.000435255864273244,0.028898306102069164,0.030327857512049795,0.1850383564018751,0.21013318193749667,0.13960490291303673
HALLMARK_MITOTIC_SPINDLE,0.030362760694444314,0.14228655782563962,0.15387398101884422,0.0593644206338502,0.09272318145998833,0.09228000181575949,0.10634100794435446,-0.028519678477024125,0.2577018194223286,0.0814573696482743,0.063494228589098,0.12563460543673519,0.18697148031330216,0.16989515960300222,0.133020113624805,0.028204690889047028,0.10843755936849402,0.1294955195264726,0.06146628089190415,0.1351899016823963,0.05184924558203261,0.000501147278578067,0.06422207300073389,0.19143347548607295,0.2373484524372885,0.14933208192382455
HALLMARK_MTORC1_SIGNALING,0.06597503283573326,-0.030452664677904653,-0.01093466315161895,0.0010078025643654115,0.1179761671333753,-0.04740535754283302,-0.03939706952673877,-0.027900557170214797,0.24443760824848904,0.021004807250606182,0.03861200983722916,0.10840826336697477,-0.006109856022387347,0.06575105028602762,0.028484744385547402,0.005138566632593773,0.026771866640856134,0.14935055806542277,-0.04478735246864727,-0.005387461176236485,-0.02324298279366348,0.05978125937752175,0.014141652596193542,0.193235321753825,0.03319021739621157,0.12781736160297438
HALLMARK_MYC_TARGETS_V1,0.06799860809872159,0.08589836785713388,0.06122339799291136,0.034478951031894356,0.03504870578973993,-0.007080940412501051,0.022425852547553582,-0.04317355791386838,0.26633627306689045,0.035994010885972975,-0.001214977029298814,0.12862551362675959,0.19934491696389386,0.1254351520939816,0.15117913517931594,0.020985247914748366,0.1571491071339615,0.12172743096051997,0.04286963788994739,0.11632734433254684,0.02798060715379131,-0.03068695335612813,0.07555617618090134,0.21798189092249587,0.057323376647435226,0.10932402720733227
HALLMARK_MYC_TARGETS_V2,-0.025500143033677352,-0.024915383116026285,0.0017784203307133857,0.002557449869263117,-0.07039502323463549,0.0008075142750586388,-0.05389281137573406,-0.0736543828037097,0.17270882036334081,0.07980093534656169,0.018931913992347414,0.028894612770105004,0.030389657525272055,0.06379082506465837,0.1199146845833637,0.05089346816103992,0.06411405827590488,0.04799260906567111,0.011777798641101516,0.10627569544308936,-0.04674304957654284,-0.026637746141820032,0.03729752507865882,0.09999014188340412,0.052323484000444245,-0.0031088049524637005
HALLMARK_MYOGENESIS,0.03659852306790562,0.11439046206404575,0.10056660388063789,0.04932696206922991,0.08657956017544004,0.04294119107356044,0.1361391266081968,0.12076251675970427,-0.007001730956786571,0.03786023762939389,0.0436864010015989,0.10535510604516928,0.16154216502570326,0.12726602862662756,0.11358930461064774,0.016125492618387426,0.02390203297018604,0.08245812216181567,0.0725420655486924,0.14318356519927297,-0.021358759957001764,-0.04658130915467805,0.06845353814017735,0.12919886152347895,0.25805152879654875,0.12737618595196984
HALLMARK_NOTCH_SIGNALING,0.05046732292023344,0.054199761572466136,0.1410954648273661,0.019600265446404953,-0.001531545300238688,0.034808773144663026,0.0547947138606792,0.00221082360597741,0.26196283322931446,0.03568240063756835,-0.0448316129599191,0.1031190686543589,0.1864797482604963,0.12703527844579834,0.09938883420563563,0.04936384642167809,0.03779961644713137,0.07162681856403401,0.06322861406413684,0.1172736281489635,0.03303065638273017,0.003369643236203846,0.09069589967466153,0.1878634510788183,0.07860161906967073,0.10140766541757612
HALLMARK_OXIDATIVE_PHOSPHORYLATION,0.08547054637352325,0.09016721104370276,0.06456516003309835,0.04200076210101843,0.026302358459703003,-0.008423329217089362,0.07447391198970854,0.13278444988900928,0.10090526511474751,0.0390237188053808,-0.037945323009552695,0.2116668387109702,0.2014271821713597,0.14865987033844244,0.1190841748773902,0.0038591281536918503,0.15637055949158912,0.05614540350383023,0.06150826436660882,0.12772908689081652,-0.013686049587911666,-0.0602668959408482,0.09138599511977274,0.17106602608902605,0.09129279420008986,0.14214521055382187
HALLMARK_P53_PATHWAY,-0.022561124832100873,-0.03599881071162983,0.06705020945136682,0.061308250778726245,0.12197665437256364,-0.0035551392361498754,0.07679009468307288,0.033552540802553994,0.2543616734748159,0.009743661953205196,-0.02971825508245463,-0.04566636626939432,0.07840318743500038,0.10656734883572509,0.09069000392216764,0.021542461110421223,0.09511179257213778,0.09059103271727613,0.026927218205014702,0.10436186900850053,0.04241590278839521,-0.04291850715704802,0.04492098330420437,0.19979506004336903,-0.009179007814676841,0.07675813046333577
HALLMARK_PANCREAS_BETA_CELLS,0.05587038638450835,0.1468533065696958,0.10364832785989467,0.08935781826151644,0.004925639004204285,0.011163899786869136,0.10600364706430239,0.15800403259328125,0.025463365686448337,0.04347470924947984,-0.10639671091588378,0.2505407471869659,0.2010005226800356,0.13471581177121902,0.0687301169064938,-0.006640591048109407,0.10581297538428837,0.10244731820644026,0.07110833745847364,0.1369321607522937,0.06772037142507256,-0.05478820422980733,0.06445685472303436,0.18810979895384236,0.25702850023161705,0.023302638653358562
HALLMARK_PEROXISOME,-0.011027359186669014,0.07649220623722518,0.08196866832068021,0.06775734120270015,-0.03415872661882888,0.011411334077076715,0.010555303665813365,-0.000249311179995293,0.13589116224847433,0.05212654661442604,-0.0627057123090731,-0.036106638230432565,0.07740452799095277,0.03913777618320682,-0.03388274518520881,-0.01634034085560604,0.06892368939911951,-0.013504548274022216,0.11414161829610116,0.11145621060763382,0.04683944472057851,-0.01913769912528357,-0.02682557667513601,0.16637695700824023,0.12317776988543193,-0.011622938146605956
HALLMARK_PI3K_AKT_MTOR_SIGNALING,0.029241562885395686,0.12961154380108905,0.11564955100985848,0.010343023395051696,0.09188722232166689,0.043546836688110754,0.0828159420546545,0.13468628116582124,0.19859354647328467,0.07945334063372349,0.002384138868388376,0.22340811133522273,0.14988597509644,0.17621847654520217,0.19666039572378896,-0.020549910544492997,0.13252901978734496,0.061000429259630555,0.07800844524486383,0.13667045608317713,0.029382128462457423,-0.031917300669088565,0.07638400236479881,0.19907655085433418,0.2447991526435083,0.0804781005096992
HALLMARK_PROTEIN_SECRETION,0.05704135847841794,0.07274345631131235,0.1330543514873919,0.07391010883544907,0.0922448580254416,0.046615403569950344,0.091403121439313,0.1075670716032674,0.25804482007803287,0.06805068054196134,0.0062055197907494395,0.2008747159891,0.22926304470217954,0.17234864445101405,0.09938674749181906,0.0028090743381531634,0.1640843045698406,0.10615126901180362,0.051598475364024524,0.12848004962304072,0.030275567137051637,-0.0016336589783509836,0.08405655470379522,0.21189375644027242,0.2228461745749401,0.1508906465250773
HALLMARK_REACTIVE_OXYGEN_SPECIES_PATHWAY,-0.00618066887285351,0.0042070145391349895,0.0037521867445707547,0.06128247817073076,0.05218264337339543,-0.019862918194870564,0.06917370360015401,0.09749512194855708,-0.1571554311358754,-0.006471977759996859,0.022457689222164352,-0.22145392068487676,0.1597841029343359,0.04461799690667469,0.00522133367326012,-0.002738072474269502,0.07689783394181042,-0.089126119181238,0.08039782117270663,0.09779456554820382,0.008493261491950217,-0.021096695990332072,-0.02386372259620042,0.22856185011463712,0.1276706485367138,0.022652790279852796
HALLMARK_SPERMATOGENESIS,0.0737756634859867,0.14914143003354238,0.1266093392693147,0.11927328797492691,0.040651797264619795,0.03936169547657733,0.11763041433049475,0.058931942460329484,0.15596927141588957,0.06339751538630525,-0.027584224218912146,0.22333425194674364,0.17777117563077927,0.10486394479119752,0.054036243976762426,0.023856527425684563,0.029861997963914085,0.08343822374040857,0.08316498501958132,0.1430248231009874,0.06811423193098523,0.01580061502103066,0.0920353548796092,0.19732188083420657,0.18947205841757048,0.13689325205858832
HALLMARK_TGF_BETA_SIGNALING,-0.025713259359368218,0.06871661823731927,0.12192349654645704,0.055028666335393044,0.027570953153180713,0.005241906003264395,-0.012362562935361527,-0.04462962252929573,0.28378334451899156,-0.020098962265876128,0.039141360998993215,0.048724865968288414,0.17225959397530086,0.057595029149335494,0.09905080092547426,0.04793719397581762,0.15187920256179713,0.05688394461761701,0.08783276479116896,0.10850732709075388,0.0313373131361222,0.042420565846301,0.014712728995632461,0.166449630131396,0.10345187570227515,0.1699743593925425
HALLMARK_TNFA_SIGNALING_VIA_NFKB,-0.04081576653911774,-0.14685049768500483,0.053778220527529765,0.056888694085578013,0.10133621514442294,0.05471640959791971,-0.03683565033467615,-0.12376941004211314,-0.08156105326825475,-0.005241836574675681,0.0074147169476515805,-0.10428628391351712,-0.03302762247183144,0.05125086374478558,0.046883505905981726,0.007708831281204454,0.11929852355709972,0.05917894366100362,-0.048481705037527086,0.05268485100696049,-0.023554272827985775,0.06040942438763996,-0.04878346578717375,0.12669482534268295,-0.15335802248296232,-0.004718159960545918
HALLMARK_UNFOLDED_PROTEIN_RESPONSE,0.06295180482827108,0.03137783250932466,0.10068599068947436,0.06483539742174438,0.13438708681570172,-0.021262113617764013,0.01151103380958985,-0.012777609469306419,0.2717708399458153,3.5478182699629203e-05,-0.01864693604054957,0.16043018686215546,0.18831619545425674,0.1512497060054764,0.15172025213842574,0.005025480438332214,0.1374660940458756,0.14883990909695682,0.04390998236333143,0.10520668532744397,0.038826332630417036,0.036620742549055875,0.09634791230847296,0.22192415616855962,0.09651518591995888,0.16344106166596045
HALLMARK_UV_RESPONSE_DN,0.0697858547420671,0.07015129998206263,0.08458163204714879,0.01818911648040255,0.04712558384550876,0.017859734851790272,0.057225363903530155,0.13018117245061958,0.0741932342837006,0.06070339369987932,0.04734141588481914,0.22254180089864814,0.007751778702874605,0.1118619829175331,0.1367006197303279,-0.040788894064296685,-0.006264175480743846,0.14005543190241346,0.10977435068202662,0.09844899167155544,0.045845602154536015,0.037398212839264776,0.042461045069189386,0.19124829546548872,0.17175099869586094,0.07912452176587727
HALLMARK_UV_RESPONSE_UP,0.07571897252571223,0.08512356634570542,0.08349812566038031,0.03251623424785132,0.11170379502984368,0.04319674941596942,0.10964926570064867,0.10049092487763274,-0.028317710787720083,0.060755698208796706,0.01988782796853256,0.1974655952989797,0.07546584951793335,0.15673977559824775,0.08566260301772458,0.09491500500592431,0.10844965802168241,0.04968738004892227,0.04141187013912522,0.10622607717977364,-0.03799253962661026,0.017581331738090514,0.05469318522993379,0.21074263150888842,0.18158514228323377,0.0891898746347648
HALLMARK_WNT_BETA_CATENIN_SIGNALING,0.05827099950704597,0.03320113800930948,0.1455148335335388,-0.015832220344272188,0.1427308355879896,0.09087486632139696,-0.02433834456487236,-0.033382374023690625,0.22055741444058558,-0.0025999370698246,0.046555949347574566,0.06975966489135389,-0.06653929807499338,0.10541194216797098,-0.0713078856947371,-0.039606395686119296,0.15520680619441257,0.1165534185542221,0.052750470835346334,0.024227407700432566,0.036229310025715715,0.06196715443944553,0.02106144302931438,0.07000490597931024,0.09714430674595444,0.05931684877626427
HALLMARK_XENOBIOTIC_METABOLISM,-0.001949297134353672,0.13037383378650066,0.06651457592599112,-0.04971269200534307,0.0457019972464859,-0.013295588188628565,0.07951156007488386,0.029411274191910905,0.105872974189431,0.003542619958157421,0.009908951997768757,-0.16450686981761853,0.09815181179344515,0.09501567642124766,0.07061387866023683,-0.002436669314985292,0.006848412954393203,0.08157959867168597,0.007878642793552711,0.0719590435027572,0.04225341694317076,-0.06112000038873026,-0.006929845404711152,0.1612989211004997,0.019390019733367552,0.08157292661381334
